,AnalogValue,Density,Amplitude,Result
0,396,396.0,0.48,0
1,405,407.0,0.49,0
2,423,423.0,0.52,0
3,413,411.0,0.5,0
4,405,402.0,0.49,0
5,393,391.0,0.48,0
6,385,387.0,0.47,0
7,401,404.0,0.49,0
8,401,400.0,0.49,0
9,439,437.0,0.54,0
10,465,468.0,0.57,0
11,465,464.0,0.57,0
12,471,475.0,0.58,0
13,464,455.0,0.57,0
14,466,464.0,0.57,0
15,453,455.0,0.55,0
16,448,449.0,0.55,0
17,463,452.0,0.57,0
18,445,452.0,0.54,0
19,430,422.0,0.53,0
20,431,412.0,0.53,0
21,400,413.0,0.49,0
22,404,409.0,0.49,0
23,408,400.0,0.5,0
24,400,399.0,0.49,0
25,403,385.0,0.49,0
26,358,373.0,0.44,0
27,358,355.0,0.44,0
28,341,347.0,0.42,0
29,338,337.0,0.41,0
30,331,332.0,0.4,0
31,321,320.0,0.39,0
32,322,319.0,0.39,0
33,321,324.0,0.39,0
34,336,346.0,0.41,0
35,386,383.0,0.47,0
36,400,407.0,0.49,0
37,456,463.0,0.56,0
38,575,579.0,0.7,0
39,595,623.0,0.73,0
40,623,615.0,0.76,0
41,628,611.0,0.77,0
42,615,621.0,0.75,0
43,594,596.0,0.73,0
44,587,599.0,0.72,0
45,579,582.0,0.71,0
46,574,576.0,0.7,0
47,560,563.0,0.68,0
48,543,543.0,0.66,0
49,528,521.0,0.64,0
50,505,496.0,0.62,0
51,495,497.0,0.6,0
52,490,494.0,0.6,0
53,497,495.0,0.61,0
54,496,498.0,0.61,0
55,486,487.0,0.59,0
56,484,487.0,0.59,0
57,483,482.0,0.59,0
58,476,464.0,0.58,0
59,463,464.0,0.57,0
60,464,494.0,0.57,0
61,450,449.0,0.55,0
62,436,435.0,0.53,0
63,431,430.0,0.53,0
64,421,413.0,0.51,0
65,400,405.0,0.49,0
66,394,393.0,0.48,0
67,395,400.0,0.48,0
68,388,382.0,0.47,0
69,373,380.0,0.46,0
70,369,368.0,0.45,0
71,377,377.0,0.46,0
72,385,399.0,0.47,0
73,377,372.0,0.46,0
74,358,354.0,0.44,0
75,366,361.0,0.45,0
76,374,371.0,0.46,0
77,363,341.0,0.44,0
78,352,362.0,0.43,0
79,341,345.0,0.42,0
80,339,336.0,0.41,0
81,322,327.0,0.39,0
82,316,318.0,0.39,0
83,304,309.0,0.37,0
84,309,306.0,0.38,0
85,302,303.0,0.37,0
86,302,299.0,0.37,0
87,297,291.0,0.36,0
88,285,287.0,0.35,0
89,278,286.0,0.34,0
90,271,272.0,0.33,0
91,265,257.0,0.32,0
92,259,256.0,0.32,0
93,260,262.0,0.32,0
94,250,256.0,0.31,0
95,240,235.0,0.29,0
96,240,240.0,0.29,0
97,225,227.0,0.27,0
98,215,211.0,0.26,0
99,208,208.0,0.25,0
100,249,246.0,0.3,0
101,241,247.0,0.29,0
102,243,241.0,0.3,0
103,238,238.0,0.29,0
104,239,240.0,0.29,0
105,234,238.0,0.29,0
106,234,231.0,0.29,0
107,243,247.0,0.3,0
108,238,238.0,0.29,0
109,233,229.0,0.28,0
110,222,219.0,0.27,0
111,208,209.0,0.25,0
112,208,203.0,0.25,0
113,213,213.0,0.26,0
114,213,212.0,0.26,0
115,208,206.0,0.25,0
116,194,195.0,0.24,0
117,185,190.0,0.23,0
118,182,181.0,0.22,0
119,180,179.0,0.22,0
120,179,177.0,0.22,0
121,171,171.0,0.21,0
122,166,165.0,0.2,0
123,174,175.0,0.21,0
124,159,165.0,0.19,0
125,160,156.0,0.2,0
126,154,150.0,0.19,0
127,161,173.0,0.2,0
128,183,187.0,0.22,0
129,182,189.0,0.22,0
130,203,208.0,0.25,0
131,236,230.0,0.29,0
132,224,226.0,0.27,0
133,219,219.0,0.27,0
134,220,218.0,0.27,0
135,226,225.0,0.28,0
136,232,223.0,0.28,0
137,226,230.0,0.28,0
138,219,215.0,0.27,0
139,227,234.0,0.28,0
140,233,230.0,0.28,0
141,214,222.0,0.26,0
142,211,215.0,0.26,0
143,207,210.0,0.25,0
144,202,202.0,0.25,0
145,194,194.0,0.24,0
146,192,178.0,0.23,0
147,181,180.0,0.22,0
148,176,176.0,0.21,0
149,167,171.0,0.2,0
150,173,175.0,0.21,0
151,173,167.0,0.21,0
152,175,168.0,0.21,0
153,179,178.0,0.22,0
154,195,196.0,0.24,0
155,189,181.0,0.23,0
156,192,192.0,0.23,0
157,190,179.0,0.23,0
158,178,177.0,0.22,0
159,172,176.0,0.21,0
160,174,172.0,0.21,0
161,166,165.0,0.2,0
162,164,165.0,0.2,0
163,192,193.0,0.23,0
164,190,192.0,0.23,0
165,219,219.0,0.27,0
166,240,240.0,0.29,0
167,239,239.0,0.29,0
168,256,256.0,0.31,0
169,309,311.0,0.38,0
170,330,334.0,0.4,0
171,368,371.0,0.45,0
172,414,406.0,0.51,0
173,412,414.0,0.5,0
174,416,417.0,0.51,0
175,434,433.0,0.53,0
176,435,438.0,0.53,0
177,432,432.0,0.53,0
178,419,417.0,0.51,0
179,403,410.0,0.49,0
180,404,405.0,0.49,0
181,413,400.0,0.5,0
182,395,394.0,0.48,0
183,382,379.0,0.47,0
184,379,371.0,0.46,0
185,368,370.0,0.45,0
186,341,343.0,0.42,0
187,334,336.0,0.41,0
188,324,326.0,0.4,0
189,324,322.0,0.4,0
190,313,310.0,0.38,0
191,305,309.0,0.37,0
192,300,298.0,0.37,0
193,298,295.0,0.36,0
194,288,281.0,0.35,0
195,281,278.0,0.34,0
196,274,265.0,0.33,0
197,267,269.0,0.33,0
198,266,267.0,0.32,0
199,252,256.0,0.31,0
200,1195,1194.0,1.46,0
201,1197,1198.0,1.46,0
202,1200,1211.0,1.47,0
203,1264,1265.0,1.54,0
204,1264,1264.0,1.54,0
205,1251,1255.0,1.53,0
206,1266,1274.0,1.55,0
207,1274,1279.0,1.56,0
208,1278,1271.0,1.56,0
209,1271,1268.0,1.55,0
210,1255,1261.0,1.53,0
211,1254,1250.0,1.53,0
212,1262,1267.0,1.54,0
213,1298,1300.0,1.58,0
214,1291,1285.0,1.58,0
215,1283,1279.0,1.57,0
216,1277,1271.0,1.56,0
217,1271,1274.0,1.55,0
218,1283,1286.0,1.57,0
219,1293,1291.0,1.58,0
220,1265,1263.0,1.54,0
221,1264,1264.0,1.54,0
222,1264,1263.0,1.54,0
223,1258,1256.0,1.54,0
224,1251,1250.0,1.53,0
225,1234,1239.0,1.51,0
226,1232,1231.0,1.5,0
227,1222,1217.0,1.49,0
228,1216,1218.0,1.48,0
229,1203,1204.0,1.47,0
230,1197,1200.0,1.46,0
231,1195,1197.0,1.46,0
232,1205,1206.0,1.47,0
233,1230,1232.0,1.5,0
234,1239,1241.0,1.51,0
235,1232,1232.0,1.5,0
236,1237,1235.0,1.51,0
237,1231,1235.0,1.5,0
238,1222,1228.0,1.49,0
239,1216,1215.0,1.48,0
240,1207,1203.0,1.47,0
241,1200,1200.0,1.47,0
242,1189,1188.0,1.45,0
243,1198,1195.0,1.46,0
244,1187,1188.0,1.45,0
245,1193,1197.0,1.46,0
246,1217,1215.0,1.49,0
247,1216,1217.0,1.48,0
248,1233,1232.0,1.51,0
249,1223,1228.0,1.49,0
250,1216,1215.0,1.48,0
251,1215,1210.0,1.48,0
252,1200,1200.0,1.47,0
253,1186,1188.0,1.45,0
254,1182,1207.0,1.44,0
255,1171,1182.0,1.43,0
256,1167,1165.0,1.42,0
257,1154,1152.0,1.41,0
258,1152,1152.0,1.41,0
259,1149,1148.0,1.4,0
260,1151,1143.0,1.41,0
261,1146,1140.0,1.4,0
262,1136,1137.0,1.39,0
263,1147,1151.0,1.4,0
264,1161,1157.0,1.42,0
265,1139,1136.0,1.39,0
266,1118,1121.0,1.37,0
267,1120,1117.0,1.37,0
268,1117,1113.0,1.36,0
269,1106,1104.0,1.35,0
270,1101,1103.0,1.34,0
271,1102,1097.0,1.35,0
272,1086,1078.0,1.33,0
273,1086,1082.0,1.33,0
274,1085,1086.0,1.32,0
275,1086,1088.0,1.33,0
276,1073,1077.0,1.31,0
277,1074,1073.0,1.31,0
278,1083,1087.0,1.32,0
279,1103,1097.0,1.35,0
280,1081,1082.0,1.32,0
281,1074,1072.0,1.31,0
282,1070,1072.0,1.31,0
283,1069,1071.0,1.31,0
284,1069,1061.0,1.31,0
285,1067,1065.0,1.3,0
286,1062,1061.0,1.3,0
287,1057,1053.0,1.29,0
288,1049,1053.0,1.28,0
289,1051,1049.0,1.28,0
290,1041,1044.0,1.27,0
291,1040,1023.0,1.27,0
292,1031,1030.0,1.26,0
293,1041,1040.0,1.27,0
294,1049,1049.0,1.28,0
295,1083,1082.0,1.32,0
296,1072,1072.0,1.31,0
297,1077,1083.0,1.32,0
298,1088,1090.0,1.33,0
299,1087,1086.0,1.33,0
300,1081,1076.0,1.32,0
301,1072,1072.0,1.31,0
302,1068,1061.0,1.3,0
303,1057,1053.0,1.29,0
304,1062,1061.0,1.3,0
305,1063,1061.0,1.3,0
306,1050,1047.0,1.28,0
307,1042,1048.0,1.27,0
308,1043,1046.0,1.27,0
309,1058,1051.0,1.29,0
310,1042,1054.0,1.27,0
311,1035,1035.0,1.26,0
312,1040,1039.0,1.27,0
313,1034,1031.0,1.26,0
314,1035,1030.0,1.26,0
315,1019,1019.0,1.24,0
316,1008,1008.0,1.23,0
317,1014,1010.0,1.24,0
318,1005,1003.0,1.23,0
319,1004,1001.0,1.23,0
320,999,999.0,1.22,0
321,994,994.0,1.21,0
322,985,991.0,1.2,0
323,987,992.0,1.21,0
324,979,989.0,1.2,0
325,982,982.0,1.2,0
326,976,976.0,1.19,0
327,966,963.0,1.18,0
328,962,973.0,1.17,0
329,966,970.0,1.18,0
330,962,963.0,1.17,0
331,963,961.0,1.18,0
332,956,950.0,1.17,0
333,954,950.0,1.16,0
334,949,953.0,1.16,0
335,943,943.0,1.15,0
336,937,937.0,1.14,0
337,945,944.0,1.15,0
338,944,946.0,1.15,0
339,950,953.0,1.16,0
340,955,959.0,1.17,0
341,957,953.0,1.17,0
342,955,947.0,1.17,0
343,946,951.0,1.16,0
344,938,943.0,1.15,0
345,928,923.0,1.13,0
346,919,918.0,1.12,0
347,918,919.0,1.12,0
348,918,915.0,1.12,0
349,909,911.0,1.11,0
350,912,912.0,1.11,0
351,905,906.0,1.11,0
352,901,902.0,1.1,0
353,895,891.0,1.09,0
354,910,894.0,1.11,0
355,901,902.0,1.1,0
356,906,897.0,1.11,0
357,917,907.0,1.12,0
358,901,905.0,1.1,0
359,923,914.0,1.13,0
360,912,913.0,1.11,0
361,911,912.0,1.11,0
362,895,892.0,1.09,0
363,883,882.0,1.08,0
364,883,883.0,1.08,0
365,884,881.0,1.08,0
366,890,890.0,1.09,0
367,885,885.0,1.08,0
368,886,890.0,1.08,0
369,890,887.0,1.09,0
370,889,894.0,1.09,0
371,911,910.0,1.11,0
372,907,906.0,1.11,0
373,910,905.0,1.11,0
374,922,919.0,1.13,0
375,923,928.0,1.13,0
376,933,929.0,1.14,0
377,944,924.0,1.15,0
378,915,924.0,1.12,0
379,913,912.0,1.11,0
380,909,901.0,1.11,0
381,900,901.0,1.1,0
382,900,897.0,1.1,0
383,906,899.0,1.11,0
384,908,905.0,1.11,0
385,901,907.0,1.1,0
386,896,899.0,1.09,0
387,907,899.0,1.11,0
388,887,883.0,1.08,0
389,887,891.0,1.08,0
390,880,887.0,1.07,0
391,887,884.0,1.08,0
392,885,881.0,1.08,0
393,893,867.0,1.09,0
394,875,877.0,1.07,0
395,874,874.0,1.07,0
396,864,866.0,1.05,0
397,882,880.0,1.08,0
398,882,880.0,1.08,0
399,880,880.0,1.07,0
400,881,880.0,1.08,0
401,881,880.0,1.08,0
402,879,880.0,1.07,0
403,885,880.0,1.08,0
404,877,880.0,1.07,0
405,874,880.0,1.07,0
406,863,861.0,1.05,0
407,873,869.0,1.07,0
408,865,865.0,1.06,0
409,862,866.0,1.05,0
410,866,874.0,1.06,0
411,869,876.0,1.06,0
412,876,871.0,1.07,0
413,870,867.0,1.06,0
414,869,870.0,1.06,0
415,848,849.0,1.04,0
416,843,848.0,1.03,0
417,842,847.0,1.03,0
418,843,843.0,1.03,0
419,842,842.0,1.03,0
420,843,841.0,1.03,0
421,837,848.0,1.02,0
422,837,838.0,1.02,0
423,826,830.0,1.01,0
424,819,823.0,1.0,0
425,839,817.0,1.02,0
426,819,816.0,1.0,0
427,821,826.0,1.0,0
428,820,823.0,1.0,0
429,818,821.0,1.0,0
430,838,833.0,1.02,0
431,816,829.0,1.0,0
432,829,827.0,1.01,0
433,826,829.0,1.01,0
434,827,826.0,1.01,0
435,830,823.0,1.01,0
436,823,826.0,1.0,0
437,823,816.0,1.0,0
438,819,819.0,1.0,0
439,822,818.0,1.0,0
440,816,817.0,1.0,0
441,806,807.0,0.98,0
442,805,810.0,0.98,0
443,810,805.0,0.99,0
444,809,810.0,0.99,0
445,803,803.0,0.98,0
446,806,811.0,0.98,0
447,801,799.0,0.98,0
448,799,794.0,0.98,0
449,797,797.0,0.97,0
450,787,786.0,0.96,0
451,786,784.0,0.96,0
452,786,786.0,0.96,0
453,784,784.0,0.96,0
454,785,784.0,0.96,0
455,784,796.0,0.96,0
456,784,784.0,0.96,0
457,789,803.0,0.96,0
458,786,784.0,0.96,0
459,777,778.0,0.95,0
460,771,775.0,0.94,0
461,784,786.0,0.96,0
462,793,789.0,0.97,0
463,799,791.0,0.98,0
464,797,793.0,0.97,0
465,792,791.0,0.97,0
466,784,797.0,0.96,0
467,785,784.0,0.96,0
468,784,798.0,0.96,0
469,791,795.0,0.97,0
470,784,784.0,0.96,0
471,791,779.0,0.97,0
472,793,796.0,0.97,0
473,802,803.0,0.98,0
474,799,801.0,0.98,0
475,802,802.0,0.98,0
476,800,797.0,0.98,0
477,802,800.0,0.98,0
478,800,799.0,0.98,0
479,793,793.0,0.97,0
480,794,789.0,0.97,0
481,805,798.0,0.98,0
482,805,804.0,0.98,0
483,798,798.0,0.97,0
484,809,811.0,0.99,0
485,798,799.0,0.97,0
486,799,799.0,0.98,0
487,798,793.0,0.97,0
488,803,793.0,0.98,0
489,805,801.0,0.98,0
490,810,813.0,0.99,0
491,808,813.0,0.99,0
492,814,806.0,0.99,0
493,815,808.0,1.0,0
494,804,802.0,0.98,0
495,797,798.0,0.97,0
496,795,788.0,0.97,0
497,793,793.0,0.97,0
498,789,795.0,0.96,0
499,806,802.0,0.98,0
500,805,806.0,0.98,0
501,817,816.0,1.0,0
502,822,837.0,1.0,0
503,815,813.0,1.0,0
504,815,813.0,1.0,0
505,816,814.0,1.0,0
506,816,818.0,1.0,0
507,816,816.0,1.0,0
508,807,816.0,0.99,0
509,809,814.0,0.99,0
510,811,797.0,0.99,0
511,821,823.0,1.0,0
512,818,816.0,1.0,0
513,816,814.0,1.0,0
514,845,833.0,1.03,0
515,833,832.0,1.02,0
516,845,846.0,1.03,0
517,847,846.0,1.03,0
518,845,843.0,1.03,0
519,841,841.0,1.03,0
520,835,835.0,1.02,0
521,830,826.0,1.01,0
522,830,829.0,1.01,0
523,827,829.0,1.01,0
524,819,821.0,1.0,0
525,821,826.0,1.0,0
526,827,820.0,1.01,0
527,839,846.0,1.02,0
528,868,864.0,1.06,0
529,855,850.0,1.04,0
530,861,856.0,1.05,0
531,862,864.0,1.05,0
532,863,864.0,1.05,0
533,864,868.0,1.05,0
534,864,851.0,1.05,0
535,883,861.0,1.08,0
536,837,858.0,1.02,0
537,838,850.0,1.02,0
538,837,846.0,1.02,0
539,833,830.0,1.02,0
540,831,827.0,1.01,0
541,831,826.0,1.01,0
542,846,844.0,1.03,0
543,843,846.0,1.03,0
544,847,844.0,1.03,0
545,844,850.0,1.03,0
546,848,847.0,1.04,0
547,833,831.0,1.02,0
548,836,832.0,1.02,0
549,843,845.0,1.03,0
550,848,846.0,1.04,0
551,847,845.0,1.03,0
552,845,846.0,1.03,0
553,839,831.0,1.02,0
554,835,842.0,1.02,0
555,832,826.0,1.02,0
556,819,818.0,1.0,0
557,816,816.0,1.0,0
558,815,815.0,1.0,0
559,817,819.0,1.0,0
560,823,825.0,1.0,0
561,818,821.0,1.0,0
562,823,826.0,1.0,0
563,833,826.0,1.02,0
564,816,816.0,1.0,0
565,816,816.0,1.0,0
566,812,811.0,0.99,0
567,827,813.0,1.01,0
568,807,809.0,0.99,0
569,805,814.0,0.98,0
570,793,798.0,0.97,0
571,813,801.0,0.99,0
572,799,799.0,0.98,0
573,782,783.0,0.95,0
574,781,779.0,0.95,0
575,784,784.0,0.96,0
576,783,781.0,0.96,0
577,783,784.0,0.96,0
578,807,799.0,0.99,0
579,818,817.0,1.0,0
580,816,818.0,1.0,0
581,814,816.0,0.99,0
582,803,799.0,0.98,0
583,797,795.0,0.97,0
584,802,800.0,0.98,0
585,801,800.0,0.98,0
586,803,801.0,0.98,0
587,800,799.0,0.98,0
588,802,786.0,0.98,0
589,800,801.0,0.98,0
590,817,817.0,1.0,0
591,819,818.0,1.0,0
592,816,817.0,1.0,0
593,820,821.0,1.0,0
594,831,828.0,1.01,0
595,838,831.0,1.02,0
596,837,834.0,1.02,0
597,832,832.0,1.02,0
598,832,830.0,1.02,0
599,831,832.0,1.01,0
600,839,837.0,1.02,0
601,832,825.0,1.02,0
602,837,839.0,1.02,0
603,839,829.0,1.02,0
604,842,845.0,1.03,0
605,853,854.0,1.04,0
606,848,849.0,1.04,0
607,845,847.0,1.03,0
608,839,844.0,1.02,0
609,829,823.0,1.01,0
610,826,825.0,1.01,0
611,827,828.0,1.01,0
612,825,828.0,1.01,0
613,825,826.0,1.01,0
614,831,828.0,1.01,0
615,829,830.0,1.01,0
616,833,831.0,1.02,0
617,848,842.0,1.04,0
618,840,832.0,1.03,0
619,837,844.0,1.02,0
620,847,832.0,1.03,0
621,847,832.0,1.03,0
622,848,849.0,1.04,0
623,847,848.0,1.03,0
624,847,833.0,1.03,0
625,842,846.0,1.03,0
626,848,837.0,1.04,0
627,831,819.0,1.01,0
628,829,827.0,1.01,0
629,834,837.0,1.02,0
630,869,861.0,1.06,0
631,855,870.0,1.04,0
632,869,877.0,1.06,0
633,884,887.0,1.08,0
634,890,891.0,1.09,0
635,879,880.0,1.07,0
636,877,877.0,1.07,0
637,876,880.0,1.07,0
638,879,879.0,1.07,0
639,874,874.0,1.07,0
640,874,877.0,1.07,0
641,877,879.0,1.07,0
642,870,876.0,1.06,0
643,867,870.0,1.06,0
644,854,852.0,1.04,0
645,861,861.0,1.05,0
646,856,859.0,1.05,0
647,856,852.0,1.05,0
648,857,857.0,1.05,0
649,860,859.0,1.05,0
650,852,861.0,1.04,0
651,860,853.0,1.05,0
652,853,854.0,1.04,0
653,866,870.0,1.06,0
654,862,864.0,1.05,0
655,853,859.0,1.04,0
656,855,850.0,1.04,0
657,852,855.0,1.04,0
658,848,853.0,1.04,0
659,849,849.0,1.04,0
660,850,853.0,1.04,0
661,846,847.0,1.03,0
662,849,855.0,1.04,0
663,855,853.0,1.04,0
664,862,863.0,1.05,0
665,855,857.0,1.04,0
666,853,854.0,1.04,0
667,886,882.0,1.08,0
668,892,877.0,1.09,0
669,886,890.0,1.08,0
670,885,882.0,1.08,0
671,882,881.0,1.08,0
672,877,880.0,1.07,0
673,882,880.0,1.08,0
674,878,879.0,1.07,0
675,870,878.0,1.06,0
676,869,874.0,1.06,0
677,867,867.0,1.06,0
678,885,880.0,1.08,0
679,871,871.0,1.06,0
680,865,865.0,1.06,0
681,869,872.0,1.06,0
682,885,886.0,1.08,0
683,883,886.0,1.08,0
684,881,880.0,1.08,0
685,887,889.0,1.08,0
686,891,884.0,1.09,0
687,880,880.0,1.07,0
688,865,867.0,1.06,0
689,877,877.0,1.07,0
690,882,881.0,1.08,0
691,880,884.0,1.07,0
692,883,879.0,1.08,0
693,886,880.0,1.08,0
694,882,882.0,1.08,0
695,879,877.0,1.07,0
696,871,880.0,1.06,0
697,865,869.0,1.06,0
698,867,866.0,1.06,0
699,877,877.0,1.07,0
700,875,870.0,1.07,0
701,870,877.0,1.06,0
702,870,876.0,1.06,0
703,875,879.0,1.07,0
704,871,870.0,1.06,0
705,874,869.0,1.07,0
706,849,851.0,1.04,0
707,851,848.0,1.04,0
708,848,851.0,1.04,0
709,850,848.0,1.04,0
710,848,849.0,1.04,0
711,849,833.0,1.04,0
712,850,849.0,1.04,0
713,848,848.0,1.04,0
714,835,832.0,1.02,0
715,838,837.0,1.02,0
716,837,837.0,1.02,0
717,838,832.0,1.02,0
718,844,842.0,1.03,0
719,848,846.0,1.04,0
720,839,846.0,1.02,0
721,845,848.0,1.03,0
722,847,839.0,1.03,0
723,830,823.0,1.01,0
724,834,836.0,1.02,0
725,835,836.0,1.02,0
726,842,836.0,1.03,0
727,841,843.0,1.03,0
728,839,837.0,1.02,0
729,834,834.0,1.02,0
730,831,829.0,1.01,0
731,822,818.0,1.0,0
732,816,815.0,1.0,0
733,809,814.0,0.99,0
734,810,806.0,0.99,0
735,807,804.0,0.99,0
736,807,806.0,0.99,0
737,816,821.0,1.0,0
738,816,814.0,1.0,0
739,815,816.0,1.0,0
740,811,802.0,0.99,0
741,815,816.0,1.0,0
742,827,826.0,1.01,0
743,831,831.0,1.01,0
744,845,843.0,1.03,0
745,853,855.0,1.04,0
746,849,848.0,1.04,0
747,845,846.0,1.03,0
748,844,843.0,1.03,0
749,847,847.0,1.03,0
750,851,848.0,1.04,0
751,848,848.0,1.04,0
752,852,851.0,1.04,0
753,870,869.0,1.06,0
754,870,875.0,1.06,0
755,877,875.0,1.07,0
756,878,880.0,1.07,0
757,896,891.0,1.09,0
758,895,891.0,1.09,0
759,890,890.0,1.09,0
760,885,886.0,1.08,0
761,886,883.0,1.08,0
762,889,886.0,1.09,0
763,891,886.0,1.09,0
764,885,883.0,1.08,0
765,880,880.0,1.07,0
766,884,885.0,1.08,0
767,877,873.0,1.07,0
768,880,870.0,1.07,0
769,877,877.0,1.07,0
770,883,880.0,1.08,0
771,880,880.0,1.07,0
772,874,880.0,1.07,0
773,880,876.0,1.07,0
774,876,871.0,1.07,0
775,870,876.0,1.06,0
776,871,873.0,1.06,0
777,874,880.0,1.07,0
778,875,879.0,1.07,0
779,879,874.0,1.07,0
780,880,875.0,1.07,0
781,877,878.0,1.07,0
782,882,887.0,1.08,0
783,882,885.0,1.08,0
784,885,886.0,1.08,0
785,898,901.0,1.1,0
786,899,898.0,1.1,0
787,905,905.0,1.11,0
788,911,912.0,1.11,0
789,912,913.0,1.11,0
790,912,913.0,1.11,0
791,912,912.0,1.11,0
792,941,939.0,1.15,0
793,944,945.0,1.15,0
794,944,944.0,1.15,0
795,947,949.0,1.16,0
796,955,950.0,1.17,0
797,954,949.0,1.16,0
798,954,952.0,1.16,0
799,950,950.0,1.16,0
800,950,955.0,1.16,0
801,945,945.0,1.15,0
802,942,935.0,1.15,0
803,922,925.0,1.13,0
804,921,918.0,1.12,0
805,919,923.0,1.12,0
806,915,916.0,1.12,0
807,910,912.0,1.11,0
808,912,912.0,1.11,0
809,911,912.0,1.11,0
810,905,911.0,1.11,0
811,905,900.0,1.11,0
812,898,898.0,1.1,0
813,902,899.0,1.1,0
814,895,898.0,1.09,0
815,901,905.0,1.1,0
816,903,901.0,1.1,0
817,897,899.0,1.1,0
818,889,893.0,1.09,0
819,883,890.0,1.08,0
820,880,864.0,1.07,0
821,880,873.0,1.07,0
822,875,871.0,1.07,0
823,873,871.0,1.07,0
824,870,875.0,1.06,0
825,881,890.0,1.08,0
826,882,886.0,1.08,0
827,884,880.0,1.08,0
828,879,880.0,1.07,0
829,875,878.0,1.07,0
830,866,874.0,1.06,0
831,891,898.0,1.09,0
832,909,908.0,1.11,0
833,902,900.0,1.1,0
834,896,896.0,1.09,0
835,891,889.0,1.09,0
836,902,900.0,1.1,0
837,901,912.0,1.1,0
838,883,885.0,1.08,0
839,881,883.0,1.08,0
840,886,884.0,1.08,0
841,888,891.0,1.08,0
842,895,895.0,1.09,0
843,898,894.0,1.1,0
844,915,901.0,1.12,0
845,907,908.0,1.11,0
846,887,893.0,1.08,0
847,884,885.0,1.08,0
848,880,881.0,1.07,0
849,878,880.0,1.07,0
850,877,878.0,1.07,0
851,874,880.0,1.07,0
852,877,871.0,1.07,0
853,867,869.0,1.06,0
854,859,855.0,1.05,0
855,847,840.0,1.03,0
856,838,837.0,1.02,0
857,835,841.0,1.02,0
858,837,844.0,1.02,0
859,838,839.0,1.02,0
860,845,845.0,1.03,0
861,846,850.0,1.03,0
862,844,844.0,1.03,0
863,834,835.0,1.02,0
864,832,826.0,1.02,0
865,828,829.0,1.01,0
866,834,832.0,1.02,0
867,831,838.0,1.01,0
868,832,833.0,1.02,0
869,837,834.0,1.02,0
870,835,838.0,1.02,0
871,834,835.0,1.02,0
872,829,827.0,1.01,0
873,818,817.0,1.0,0
874,818,819.0,1.0,0
875,831,825.0,1.01,0
876,822,823.0,1.0,0
877,827,829.0,1.01,0
878,827,830.0,1.01,0
879,831,822.0,1.01,0
880,820,821.0,1.0,0
881,816,819.0,1.0,0
882,807,811.0,0.99,0
883,808,806.0,0.99,0
884,820,819.0,1.0,0
885,832,827.0,1.02,0
886,830,832.0,1.01,0
887,834,833.0,1.02,0
888,834,832.0,1.02,0
889,849,845.0,1.04,0
890,835,838.0,1.02,0
891,843,839.0,1.03,0
892,862,864.0,1.05,0
893,883,886.0,1.08,0
894,898,899.0,1.1,0
895,902,896.0,1.1,0
896,905,903.0,1.11,0
897,898,906.0,1.1,0
898,897,899.0,1.1,0
899,891,894.0,1.09,0
900,902,902.0,1.1,0
901,900,897.0,1.1,0
902,898,900.0,1.1,0
903,903,905.0,1.1,0
904,905,909.0,1.11,0
905,906,900.0,1.11,0
906,901,907.0,1.1,0
907,906,906.0,1.11,0
908,897,907.0,1.1,0
909,901,897.0,1.1,0
910,896,897.0,1.09,0
911,894,896.0,1.09,0
912,886,896.0,1.08,0
913,889,891.0,1.09,0
914,892,891.0,1.09,0
915,891,895.0,1.09,0
916,881,880.0,1.08,0
917,880,875.0,1.07,0
918,885,893.0,1.08,0
919,894,892.0,1.09,0
920,885,889.0,1.08,0
921,901,898.0,1.1,0
922,900,902.0,1.1,0
923,895,897.0,1.09,0
924,896,893.0,1.09,0
925,890,884.0,1.09,0
926,874,879.0,1.07,0
927,874,870.0,1.07,0
928,876,871.0,1.07,0
929,880,878.0,1.07,0
930,899,893.0,1.1,0
931,894,891.0,1.09,0
932,889,893.0,1.09,0
933,892,896.0,1.09,0
934,906,894.0,1.11,0
935,898,897.0,1.1,0
936,889,896.0,1.09,0
937,892,889.0,1.09,0
938,893,892.0,1.09,0
939,897,897.0,1.1,0
940,896,894.0,1.09,0
941,886,891.0,1.08,0
942,886,883.0,1.08,0
943,877,877.0,1.07,0
944,869,871.0,1.06,0
945,873,875.0,1.07,0
946,875,875.0,1.07,0
947,885,881.0,1.08,0
948,882,885.0,1.08,0
949,880,881.0,1.07,0
950,883,882.0,1.08,0
951,879,879.0,1.07,0
952,870,871.0,1.06,0
953,878,880.0,1.07,0
954,879,880.0,1.07,0
955,875,874.0,1.07,0
956,879,875.0,1.07,0
957,875,878.0,1.07,0
958,878,877.0,1.07,0
959,875,873.0,1.07,0
960,867,867.0,1.06,0
961,858,853.0,1.05,0
962,850,849.0,1.04,0
963,865,867.0,1.06,0
964,865,867.0,1.06,0
965,865,870.0,1.06,0
966,880,867.0,1.07,0
967,865,867.0,1.06,0
968,858,863.0,1.05,0
969,857,864.0,1.05,0
970,859,851.0,1.05,0
971,851,858.0,1.04,0
972,853,851.0,1.04,0
973,852,851.0,1.04,0
974,855,855.0,1.04,0
975,865,865.0,1.06,0
976,865,862.0,1.06,0
977,863,866.0,1.05,0
978,855,859.0,1.04,0
979,874,880.0,1.07,0
980,886,895.0,1.08,0
981,897,891.0,1.1,0
982,893,896.0,1.09,0
983,897,902.0,1.1,0
984,903,907.0,1.1,0
985,894,901.0,1.09,0
986,899,896.0,1.1,0
987,892,889.0,1.09,0
988,903,896.0,1.1,0
989,901,898.0,1.1,0
990,899,898.0,1.1,0
991,895,897.0,1.09,0
992,898,899.0,1.1,0
993,899,897.0,1.1,0
994,891,894.0,1.09,0
995,887,887.0,1.08,0
996,880,874.0,1.07,0
997,877,881.0,1.07,0
998,884,880.0,1.08,0
999,885,879.0,1.08,0
1000,884,880.0,1.08,0
1001,880,880.0,1.07,0
1002,889,886.0,1.09,0
1003,884,889.0,1.08,0
1004,890,890.0,1.09,0
1005,879,877.0,1.07,0
1006,879,880.0,1.07,0
1007,880,881.0,1.07,0
1008,887,883.0,1.08,0
1009,891,885.0,1.09,0
1010,890,887.0,1.09,0
1011,885,885.0,1.08,0
1012,891,884.0,1.09,0
1013,880,882.0,1.07,0
1014,870,871.0,1.06,0
1015,877,873.0,1.07,0
1016,879,878.0,1.07,0
1017,890,894.0,1.09,0
1018,896,896.0,1.09,0
1019,896,893.0,1.09,0
1020,897,890.0,1.1,0
1021,891,894.0,1.09,0
1022,887,889.0,1.08,0
1023,882,880.0,1.08,0
1024,886,887.0,1.08,0
1025,894,892.0,1.09,0
1026,890,887.0,1.09,0
1027,894,891.0,1.09,0
1028,887,889.0,1.08,0
1029,895,896.0,1.09,0
1030,906,903.0,1.11,0
1031,897,900.0,1.1,0
1032,895,883.0,1.09,0
1033,899,914.0,1.1,0
1034,903,904.0,1.1,0
1035,911,907.0,1.11,0
1036,903,907.0,1.1,0
1037,915,915.0,1.12,0
1038,911,913.0,1.11,0
1039,910,909.0,1.11,0
1040,910,912.0,1.11,0
1041,917,912.0,1.12,0
1042,913,918.0,1.11,0
1043,915,912.0,1.12,0
1044,913,912.0,1.11,0
1045,916,913.0,1.12,0
1046,924,925.0,1.13,0
1047,928,930.0,1.13,0
1048,939,939.0,1.15,0
1049,931,926.0,1.14,0
1050,923,927.0,1.13,0
1051,923,929.0,1.13,0
1052,931,928.0,1.14,0
1053,935,931.0,1.14,0
1054,933,937.0,1.14,0
1055,935,936.0,1.14,0
1056,931,938.0,1.14,0
1057,934,932.0,1.14,0
1058,944,944.0,1.15,0
1059,959,955.0,1.17,0
1060,966,963.0,1.18,0
1061,986,977.0,1.2,0
1062,977,993.0,1.19,0
1063,982,985.0,1.2,0
1064,985,990.0,1.2,0
1065,985,981.0,1.2,0
1066,977,979.0,1.19,0
1067,976,973.0,1.19,0
1068,986,989.0,1.2,0
1069,993,994.0,1.21,0
1070,993,993.0,1.21,0
1071,991,987.0,1.21,0
1072,991,991.0,1.21,0
1073,987,988.0,1.21,0
1074,985,983.0,1.2,0
1075,986,985.0,1.2,0
1076,998,1002.0,1.22,0
1077,1012,1012.0,1.24,0
1078,1040,1044.0,1.27,0
1079,1058,1061.0,1.29,0
1080,1054,1057.0,1.29,0
1081,1062,1072.0,1.3,0
1082,1066,1062.0,1.3,0
1083,1049,1054.0,1.28,0
1084,1039,1041.0,1.27,0
1085,1046,1043.0,1.28,0
1086,1046,1043.0,1.28,0
1087,1044,1043.0,1.27,0
1088,1062,1056.0,1.3,0
1089,1063,1061.0,1.3,0
1090,1064,1070.0,1.3,0
1091,1050,1053.0,1.28,0
1092,1058,1059.0,1.29,0
1093,1065,1067.0,1.3,0
1094,1067,1065.0,1.3,0
1095,1069,1065.0,1.31,0
1096,1083,1086.0,1.32,0
1097,1090,1090.0,1.33,0
1098,1085,1081.0,1.32,0
1099,1078,1073.0,1.32,0
1100,1081,1081.0,1.32,0
1101,1087,1086.0,1.33,0
1102,1090,1087.0,1.33,0
1103,1091,1098.0,1.33,0
1104,1104,1105.0,1.35,0
1105,1099,1099.0,1.34,0
1106,1088,1089.0,1.33,0
1107,1104,1104.0,1.35,0
1108,1117,1114.0,1.36,0
1109,1113,1116.0,1.36,0
1110,1123,1125.0,1.37,0
1111,1130,1126.0,1.38,0
1112,1152,1152.0,1.41,0
1113,1137,1138.0,1.39,0
1114,1162,1150.0,1.42,0
1115,1150,1153.0,1.4,0
1116,1149,1150.0,1.4,0
1117,1141,1143.0,1.39,0
1118,1131,1134.0,1.38,0
1119,1136,1135.0,1.39,0
1120,1135,1130.0,1.39,0
1121,1131,1135.0,1.38,0
1122,1137,1142.0,1.39,0
1123,1136,1139.0,1.39,0
1124,1143,1144.0,1.4,0
1125,1139,1141.0,1.39,0
1126,1147,1143.0,1.4,0
1127,1153,1154.0,1.41,0
1128,1146,1142.0,1.4,0
1129,1134,1135.0,1.38,0
1130,1127,1126.0,1.38,0
1131,1111,1118.0,1.36,0
1132,1117,1116.0,1.36,0
1133,1117,1115.0,1.36,0
1134,1121,1121.0,1.37,0
1135,1119,1119.0,1.37,0
1136,1109,1111.0,1.35,0
1137,1104,1104.0,1.35,0
1138,1111,1120.0,1.36,0
1139,1107,1106.0,1.35,0
1140,1105,1104.0,1.35,0
1141,1129,1123.0,1.38,0
1142,1129,1124.0,1.38,0
1143,1119,1119.0,1.37,0
1144,1095,1099.0,1.34,0
1145,1105,1104.0,1.35,0
1146,1111,1104.0,1.36,0
1147,1107,1104.0,1.35,0
1148,1115,1118.0,1.36,0
1149,1111,1118.0,1.36,0
1150,1110,1104.0,1.36,0
1151,1101,1098.0,1.34,0
1152,1090,1088.0,1.33,0
1153,1098,1098.0,1.34,0
1154,1103,1103.0,1.35,0
1155,1103,1106.0,1.35,0
1156,1104,1104.0,1.35,0
1157,1101,1102.0,1.34,0
1158,1102,1103.0,1.35,0
1159,1092,1088.0,1.33,0
1160,1090,1087.0,1.33,0
1161,1104,1109.0,1.35,0
1162,1104,1105.0,1.35,0
1163,1103,1102.0,1.35,0
1164,1093,1097.0,1.33,0
1165,1091,1093.0,1.33,0
1166,1088,1088.0,1.33,0
1167,1088,1093.0,1.33,0
1168,1103,1104.0,1.35,0
1169,1098,1100.0,1.34,0
1170,1093,1096.0,1.33,0
1171,1097,1094.0,1.34,0
1172,1091,1088.0,1.33,0
1173,1101,1104.0,1.34,0
1174,1113,1109.0,1.36,0
1175,1095,1098.0,1.34,0
1176,1099,1099.0,1.34,0
1177,1097,1095.0,1.34,0
1178,1091,1095.0,1.33,0
1179,1093,1098.0,1.33,0
1180,1093,1090.0,1.33,0
1181,1089,1089.0,1.33,0
1182,1075,1076.0,1.31,0
1183,1076,1079.0,1.31,0
1184,1089,1088.0,1.33,0
1185,1088,1083.0,1.33,0
1186,1081,1086.0,1.32,0
1187,1075,1077.0,1.31,0
1188,1083,1093.0,1.32,0
1189,1094,1101.0,1.34,0
1190,1099,1091.0,1.34,0
1191,1090,1095.0,1.33,0
1192,1089,1089.0,1.33,0
1193,1103,1103.0,1.35,0
1194,1103,1097.0,1.35,0
1195,1102,1101.0,1.35,0
1196,1107,1105.0,1.35,0
1197,1100,1097.0,1.34,0
1198,1088,1088.0,1.33,0
1199,1090,1088.0,1.33,0
1200,755,758.0,0.92,0
1201,784,784.0,0.96,0
1202,789,791.0,0.96,0
1203,800,801.0,0.98,0
1204,799,805.0,0.98,0
1205,800,797.0,0.98,0
1206,796,797.0,0.97,0
1207,817,796.0,1.0,0
1208,795,798.0,0.97,0
1209,810,815.0,0.99,0
1210,797,802.0,0.97,0
1211,811,809.0,0.99,0
1212,805,806.0,0.98,0
1213,811,802.0,0.99,0
1214,821,821.0,1.0,0
1215,817,816.0,1.0,0
1216,821,820.0,1.0,0
1217,820,816.0,1.0,0
1218,816,822.0,1.0,0
1219,817,821.0,1.0,0
1220,826,828.0,1.01,0
1221,825,825.0,1.01,0
1222,819,816.0,1.0,0
1223,818,816.0,1.0,0
1224,817,821.0,1.0,0
1225,818,820.0,1.0,0
1226,838,838.0,1.02,0
1227,842,843.0,1.03,0
1228,832,838.0,1.02,0
1229,845,845.0,1.03,0
1230,846,847.0,1.03,0
1231,866,867.0,1.06,0
1232,866,873.0,1.06,0
1233,869,878.0,1.06,0
1234,878,880.0,1.07,0
1235,878,877.0,1.07,0
1236,896,897.0,1.09,0
1237,932,931.0,1.14,0
1238,927,928.0,1.13,0
1239,927,929.0,1.13,0
1240,919,921.0,1.12,0
1241,921,924.0,1.12,0
1242,934,930.0,1.14,0
1243,953,954.0,1.16,0
1244,978,977.0,1.19,0
1245,957,958.0,1.17,0
1246,954,958.0,1.16,0
1247,970,974.0,1.18,0
1248,977,977.0,1.19,0
1249,977,973.0,1.19,0
1250,971,978.0,1.19,0
1251,991,992.0,1.21,0
1252,994,996.0,1.21,0
1253,982,985.0,1.2,0
1254,974,971.0,1.19,0
1255,983,987.0,1.2,0
1256,1001,1004.0,1.22,0
1257,1032,1030.0,1.26,0
1258,1063,1061.0,1.3,0
1259,1053,1057.0,1.29,0
1260,1053,1055.0,1.29,0
1261,1047,1051.0,1.28,0
1262,1087,1081.0,1.33,0
1263,1073,1079.0,1.31,0
1264,1069,1072.0,1.31,0
1265,1062,1062.0,1.3,0
1266,1067,1072.0,1.3,0
1267,1072,1066.0,1.31,0
1268,1099,1102.0,1.34,0
1269,1117,1117.0,1.36,0
1270,1104,1104.0,1.35,0
1271,1099,1099.0,1.34,0
1272,1095,1099.0,1.34,0
1273,1093,1090.0,1.33,0
1274,1087,1089.0,1.33,0
1275,1074,1072.0,1.31,0
1276,1074,1072.0,1.31,0
1277,1071,1070.0,1.31,0
1278,1065,1063.0,1.3,0
1279,1062,1057.0,1.3,0
1280,1065,1061.0,1.3,0
1281,1059,1055.0,1.29,0
1282,1054,1058.0,1.29,0
1283,1059,1063.0,1.29,0
1284,1075,1085.0,1.31,0
1285,1099,1099.0,1.34,0
1286,1094,1091.0,1.34,0
1287,1087,1088.0,1.33,0
1288,1072,1072.0,1.31,0
1289,1070,1069.0,1.31,0
1290,1066,1066.0,1.3,0
1291,1051,1046.0,1.28,0
1292,1034,1037.0,1.26,0
1293,1022,1020.0,1.25,0
1294,1022,1030.0,1.25,0
1295,1031,1030.0,1.26,0
1296,1023,1028.0,1.25,0
1297,1013,1016.0,1.24,0
1298,1008,1007.0,1.23,0
1299,1008,1012.0,1.23,0
1300,1007,1005.0,1.23,0
1301,983,987.0,1.2,0
1302,992,991.0,1.21,0
1303,991,991.0,1.21,0
1304,988,988.0,1.21,0
1305,980,982.0,1.2,0
1306,989,992.0,1.21,0
1307,977,985.0,1.19,0
1308,987,979.0,1.21,0
1309,950,950.0,1.16,0
1310,947,944.0,1.16,0
1311,943,942.0,1.15,0
1312,933,938.0,1.14,0
1313,935,939.0,1.14,0
1314,938,934.0,1.15,0
1315,928,929.0,1.13,0
1316,917,917.0,1.12,0
1317,906,908.0,1.11,0
1318,896,898.0,1.09,0
1319,886,891.0,1.08,0
1320,889,892.0,1.09,0
1321,893,892.0,1.09,0
1322,887,892.0,1.08,0
1323,890,882.0,1.09,0
1324,880,881.0,1.07,0
1325,890,885.0,1.09,0
1326,880,882.0,1.07,0
1327,873,880.0,1.07,0
1328,877,877.0,1.07,0
1329,880,883.0,1.07,0
1330,912,912.0,1.11,0
1331,923,927.0,1.13,0
1332,960,962.0,1.17,0
1333,955,950.0,1.17,0
1334,950,950.0,1.16,0
1335,960,957.0,1.17,0
1336,958,954.0,1.17,0
1337,949,944.0,1.16,0
1338,944,947.0,1.15,0
1339,943,943.0,1.15,0
1340,960,943.0,1.17,0
1341,953,950.0,1.16,0
1342,948,949.0,1.16,0
1343,958,956.0,1.17,0
1344,953,951.0,1.16,0
1345,944,945.0,1.15,0
1346,941,942.0,1.15,0
1347,940,941.0,1.15,0
1348,926,923.0,1.13,0
1349,919,919.0,1.12,0
1350,925,924.0,1.13,0
1351,922,919.0,1.13,0
1352,916,917.0,1.12,0
1353,911,910.0,1.11,0
1354,913,914.0,1.11,0
1355,923,925.0,1.13,0
1356,929,929.0,1.13,0
1357,952,950.0,1.16,0
1358,958,951.0,1.17,0
1359,951,948.0,1.16,0
1360,955,953.0,1.17,0
1361,957,954.0,1.17,0
1362,941,943.0,1.15,0
1363,931,935.0,1.14,0
1364,937,935.0,1.14,0
1365,933,930.0,1.14,0
1366,929,931.0,1.13,0
1367,929,927.0,1.13,0
1368,922,922.0,1.13,0
1369,923,918.0,1.13,0
1370,912,914.0,1.11,0
1371,901,895.0,1.1,0
1372,894,895.0,1.09,0
1373,893,891.0,1.09,0
1374,890,891.0,1.09,0
1375,889,894.0,1.09,0
1376,899,899.0,1.1,0
1377,894,894.0,1.09,0
1378,892,889.0,1.09,0
1379,876,878.0,1.07,0
1380,875,870.0,1.07,0
1381,889,892.0,1.09,0
1382,899,896.0,1.1,0
1383,894,897.0,1.09,0
1384,892,892.0,1.09,0
1385,877,890.0,1.07,0
1386,887,891.0,1.08,0
1387,899,889.0,1.1,0
1388,877,878.0,1.07,0
1389,879,874.0,1.07,0
1390,881,871.0,1.08,0
1391,877,877.0,1.07,0
1392,877,870.0,1.07,0
1393,883,883.0,1.08,0
1394,887,875.0,1.08,0
1395,883,882.0,1.08,0
1396,880,881.0,1.07,0
1397,869,864.0,1.06,0
1398,863,867.0,1.05,0
1399,859,860.0,1.05,0
1400,859,860.0,1.05,0
1401,866,863.0,1.06,0
1402,911,914.0,1.11,0
1403,913,917.0,1.11,0
1404,897,927.0,1.1,0
1405,944,947.0,1.15,0
1406,945,955.0,1.15,0
1407,944,946.0,1.15,0
1408,942,944.0,1.15,0
1409,944,946.0,1.15,0
1410,942,934.0,1.15,0
1411,944,943.0,1.15,0
1412,961,966.0,1.17,0
1413,976,975.0,1.19,0
1414,970,959.0,1.18,0
1415,947,950.0,1.16,0
1416,954,955.0,1.16,0
1417,950,948.0,1.16,0
1418,959,960.0,1.17,0
1419,958,957.0,1.17,0
1420,964,963.0,1.18,0
1421,959,959.0,1.17,0
1422,961,960.0,1.17,0
1423,970,967.0,1.18,0
1424,973,982.0,1.19,0
1425,964,976.0,1.18,0
1426,976,980.0,1.19,0
1427,982,987.0,1.2,0
1428,1008,1008.0,1.23,0
1429,1008,1005.0,1.23,0
1430,1008,1015.0,1.23,0
1431,1007,1003.0,1.23,0
1432,994,1001.0,1.21,0
1433,981,994.0,1.2,0
1434,1013,986.0,1.24,0
1435,983,981.0,1.2,0
1436,1001,987.0,1.22,0
1437,981,980.0,1.2,0
1438,981,985.0,1.2,0
1439,992,993.0,1.21,0
1440,1006,1007.0,1.23,0
1441,990,983.0,1.21,0
1442,977,981.0,1.19,0
1443,983,977.0,1.2,0
1444,989,985.0,1.21,0
1445,981,978.0,1.2,0
1446,978,976.0,1.19,0
1447,971,974.0,1.19,0
1448,961,943.0,1.17,0
1449,961,966.0,1.17,0
1450,976,974.0,1.19,0
1451,960,976.0,1.17,0
1452,971,975.0,1.19,0
1453,976,971.0,1.19,0
1454,972,976.0,1.19,0
1455,976,969.0,1.19,0
1456,981,976.0,1.2,0
1457,976,975.0,1.19,0
1458,963,962.0,1.18,0
1459,959,957.0,1.17,0
1460,953,958.0,1.16,0
1461,969,966.0,1.18,0
1462,994,998.0,1.21,0
1463,1011,1008.0,1.23,0
1464,1001,997.0,1.22,0
1465,1001,1006.0,1.22,0
1466,992,991.0,1.21,0
1467,978,985.0,1.19,0
1468,992,995.0,1.21,0
1469,983,987.0,1.2,0
1470,987,985.0,1.21,0
1471,985,981.0,1.2,0
1472,977,979.0,1.19,0
1473,1019,1039.0,1.24,0
1474,1013,1015.0,1.24,0
1475,1008,1008.0,1.23,0
1476,1011,1014.0,1.23,0
1477,1030,1033.0,1.26,0
1478,1043,1056.0,1.27,0
1479,1063,1065.0,1.3,0
1480,1083,1075.0,1.32,0
1481,1082,1088.0,1.32,0
1482,1072,1081.0,1.31,0
1483,1076,1075.0,1.31,0
1484,1077,1085.0,1.32,0
1485,1079,1078.0,1.32,0
1486,1077,1073.0,1.32,0
1487,1086,1086.0,1.33,0
1488,1109,1105.0,1.35,0
1489,1104,1101.0,1.35,0
1490,1105,1102.0,1.35,0
1491,1115,1110.0,1.36,0
1492,1107,1108.0,1.35,0
1493,1100,1104.0,1.34,0
1494,1097,1091.0,1.34,0
1495,1094,1098.0,1.34,0
1496,1088,1091.0,1.33,0
1497,1088,1089.0,1.33,0
1498,1149,1152.0,1.4,0
1499,1149,1147.0,1.4,0
1500,1143,1136.0,1.4,0
1501,1164,1136.0,1.42,0
1502,1135,1138.0,1.39,0
1503,1135,1136.0,1.39,0
1504,1123,1122.0,1.37,0
1505,1126,1124.0,1.37,0
1506,1149,1183.0,1.4,0
1507,1161,1166.0,1.42,0
1508,1187,1183.0,1.45,0
1509,1190,1191.0,1.45,0
1510,1184,1191.0,1.45,0
1511,1179,1175.0,1.44,0
1512,1168,1166.0,1.43,0
1513,1148,1145.0,1.4,0
1514,1137,1139.0,1.39,0
1515,1162,1163.0,1.42,0
1516,1171,1167.0,1.43,0
1517,1177,1170.0,1.44,0
1518,1171,1169.0,1.43,0
1519,1168,1167.0,1.43,0
1520,1168,1167.0,1.43,0
1521,1169,1169.0,1.43,0
1522,1162,1161.0,1.42,0
1523,1158,1159.0,1.41,0
1524,1187,1184.0,1.45,0
1525,1179,1183.0,1.44,0
1526,1190,1188.0,1.45,0
1527,1217,1200.0,1.49,0
1528,1235,1239.0,1.51,0
1529,1250,1254.0,1.53,0
1530,1297,1296.0,1.58,0
1531,1288,1283.0,1.57,0
1532,1286,1287.0,1.57,0
1533,1295,1279.0,1.58,0
1534,1269,1270.0,1.55,0
1535,1239,1260.0,1.51,0
1536,1251,1255.0,1.53,0
1537,1277,1275.0,1.56,0
1538,1269,1267.0,1.55,0
1539,1258,1264.0,1.54,0
1540,1270,1261.0,1.55,0
1541,1255,1253.0,1.53,0
1542,1245,1245.0,1.52,0
1543,1262,1278.0,1.54,0
1544,1299,1296.0,1.59,0
1545,1265,1296.0,1.54,0
1546,1291,1287.0,1.58,0
1547,1307,1313.0,1.6,0
1548,1301,1305.0,1.59,0
1549,1309,1301.0,1.6,0
1550,1293,1296.0,1.58,0
1551,1278,1280.0,1.56,0
1552,1289,1282.0,1.57,0
1553,1279,1275.0,1.56,0
1554,1282,1280.0,1.57,0
1555,1277,1280.0,1.56,0
1556,1266,1271.0,1.55,0
1557,1296,1301.0,1.58,0
1558,1328,1327.0,1.62,0
1559,1309,1311.0,1.6,0
1560,1302,1303.0,1.59,0
1561,1355,1358.0,1.65,0
1562,1385,1388.0,1.69,0
1563,1397,1397.0,1.71,0
1564,1378,1376.0,1.68,0
1565,1373,1371.0,1.68,0
1566,1363,1358.0,1.66,0
1567,1331,1328.0,1.63,0
1568,1319,1322.0,1.61,0
1569,1305,1310.0,1.59,0
1570,1298,1307.0,1.58,0
1571,1310,1310.0,1.6,0
1572,1290,1297.0,1.58,0
1573,1289,1291.0,1.57,0
1574,1265,1271.0,1.54,0
1575,1268,1278.0,1.55,0
1576,1268,1265.0,1.55,0
1577,1289,1291.0,1.57,0
1578,1299,1296.0,1.59,0
1579,1295,1296.0,1.58,0
1580,1283,1287.0,1.57,0
1581,1284,1287.0,1.57,0
1582,1284,1296.0,1.57,0
1583,1293,1296.0,1.58,0
1584,1313,1306.0,1.6,0
1585,1302,1307.0,1.59,0
1586,1300,1303.0,1.59,0
1587,1287,1291.0,1.57,0
1588,1280,1282.0,1.56,0
1589,1284,1278.0,1.57,0
1590,1264,1264.0,1.54,0
1591,1277,1261.0,1.56,0
1592,1249,1253.0,1.53,0
1593,1250,1251.0,1.53,0
1594,1253,1254.0,1.53,0
1595,1254,1249.0,1.53,0
1596,1243,1246.0,1.52,0
1597,1225,1235.0,1.5,0
1598,1223,1216.0,1.49,0
1599,1221,1223.0,1.49,0
1600,1231,1230.0,1.5,0
1601,1232,1232.0,1.5,0
1602,1236,1243.0,1.51,0
1603,1291,1294.0,1.58,0
1604,1278,1280.0,1.56,0
1605,1268,1263.0,1.55,0
1606,1264,1262.0,1.54,0
1607,1252,1258.0,1.53,0
1608,1281,1280.0,1.56,0
1609,1290,1294.0,1.58,0
1610,1293,1294.0,1.58,0
1611,1296,1290.0,1.58,0
1612,1312,1314.0,1.6,0
1613,1311,1310.0,1.6,0
1614,1311,1318.0,1.6,0
1615,1303,1306.0,1.59,0
1616,1298,1300.0,1.58,0
1617,1300,1302.0,1.59,0
1618,1317,1327.0,1.61,0
1619,1317,1317.0,1.61,0
1620,1330,1323.0,1.62,0
1621,1327,1328.0,1.62,0
1622,1323,1321.0,1.62,0
1623,1328,1328.0,1.62,0
1624,1328,1325.0,1.62,0
1625,1329,1328.0,1.62,0
1626,1324,1328.0,1.62,0
1627,1306,1310.0,1.59,0
1628,1298,1296.0,1.58,0
1629,1322,1305.0,1.61,0
1630,1303,1301.0,1.59,0
1631,1298,1297.0,1.58,0
1632,1290,1293.0,1.58,0
1633,1291,1286.0,1.58,0
1634,1307,1310.0,1.6,0
1635,1296,1296.0,1.58,0
1636,1283,1286.0,1.57,0
1637,1296,1296.0,1.58,0
1638,1296,1280.0,1.58,0
1639,1293,1287.0,1.58,0
1640,1286,1280.0,1.57,0
1641,1281,1278.0,1.56,0
1642,1267,1270.0,1.55,0
1643,1251,1261.0,1.53,0
1644,1242,1264.0,1.52,0
1645,1264,1267.0,1.54,0
1646,1273,1275.0,1.55,0
1647,1277,1271.0,1.56,0
1648,1267,1276.0,1.55,0
1649,1264,1264.0,1.54,0
1650,1289,1286.0,1.57,0
1651,1314,1314.0,1.6,0
1652,1307,1306.0,1.6,0
1653,1315,1327.0,1.61,0
1654,1322,1331.0,1.61,0
1655,1346,1319.0,1.64,0
1656,1351,1345.0,1.65,0
1657,1385,1386.0,1.69,0
1658,1380,1376.0,1.68,0
1659,1370,1369.0,1.67,0
1660,1503,1503.0,1.84,0
1661,1515,1510.0,1.85,0
1662,1509,1511.0,1.84,0
1663,1489,1491.0,1.82,0
1664,1488,1490.0,1.82,0
1665,1471,1466.0,1.8,0
1666,1435,1426.0,1.75,0
1667,1425,1427.0,1.74,0
1668,1427,1429.0,1.74,0
1669,1431,1427.0,1.75,0
1670,1415,1421.0,1.73,0
1671,1409,1405.0,1.72,0
1672,1397,1402.0,1.71,0
1673,1390,1392.0,1.7,0
1674,1390,1386.0,1.7,0
1675,1377,1374.0,1.68,0
1676,1357,1362.0,1.66,0
1677,1366,1377.0,1.67,0
1678,1363,1365.0,1.66,0
1679,1351,1351.0,1.65,0
1680,1328,1333.0,1.62,0
1681,1318,1313.0,1.61,0
1682,1312,1313.0,1.6,0
1683,1295,1301.0,1.58,0
1684,1297,1296.0,1.58,0
1685,1293,1294.0,1.58,0
1686,1299,1297.0,1.59,0
1687,1292,1294.0,1.58,0
1688,1286,1280.0,1.57,0
1689,1268,1267.0,1.55,0
1690,1257,1259.0,1.53,0
1691,1257,1253.0,1.53,0
1692,1253,1246.0,1.53,0
1693,1307,1315.0,1.6,0
1694,1330,1330.0,1.62,0
1695,1328,1334.0,1.62,0
1696,1348,1346.0,1.65,0
1697,1349,1351.0,1.65,0
1698,1346,1350.0,1.64,0
1699,1342,1343.0,1.64,0
1700,1339,1343.0,1.63,0
1701,1334,1335.0,1.63,0
1702,1334,1342.0,1.63,0
1703,1347,1343.0,1.64,0
1704,1331,1333.0,1.63,0
1705,1327,1326.0,1.62,0
1706,1310,1311.0,1.6,0
1707,1307,1302.0,1.6,0
1708,1302,1303.0,1.59,0
1709,1319,1305.0,1.61,0
1710,1319,1315.0,1.61,0
1711,1306,1303.0,1.59,0
1712,1301,1306.0,1.59,0
1713,1293,1286.0,1.58,0
1714,1287,1287.0,1.57,0
1715,1278,1279.0,1.56,0
1716,1264,1270.0,1.54,0
1717,1271,1271.0,1.55,0
1718,1271,1270.0,1.55,0
1719,1247,1248.0,1.52,0
1720,1243,1238.0,1.52,0
1721,1232,1230.0,1.5,0
1722,1239,1241.0,1.51,0
1723,1243,1239.0,1.52,0
1724,1241,1241.0,1.52,0
1725,1236,1235.0,1.51,0
1726,1241,1235.0,1.52,0
1727,1238,1239.0,1.51,0
1728,1261,1263.0,1.54,0
1729,1271,1255.0,1.55,0
1730,1252,1257.0,1.53,0
1731,1249,1248.0,1.53,0
1732,1245,1246.0,1.52,0
1733,1259,1260.0,1.54,0
1734,1293,1290.0,1.58,0
1735,1284,1280.0,1.57,0
1736,1265,1267.0,1.54,0
1737,1275,1273.0,1.56,0
1738,1266,1264.0,1.55,0
1739,1257,1254.0,1.53,0
1740,1247,1244.0,1.52,0
1741,1245,1246.0,1.52,0
1742,1232,1231.0,1.5,0
1743,1215,1217.0,1.48,0
1744,1214,1215.0,1.48,0
1745,1245,1247.0,1.52,0
1746,1266,1272.0,1.55,0
1747,1291,1292.0,1.58,0
1748,1283,1291.0,1.57,0
1749,1270,1267.0,1.55,0
1750,1280,1277.0,1.56,0
1751,1274,1273.0,1.56,0
1752,1270,1272.0,1.55,0
1753,1273,1277.0,1.55,0
1754,1271,1271.0,1.55,0
1755,1265,1266.0,1.54,0
1756,1250,1248.0,1.53,0
1757,1235,1234.0,1.51,0
1758,1232,1230.0,1.5,0
1759,1232,1231.0,1.5,0
1760,1225,1226.0,1.5,0
1761,1219,1220.0,1.49,0
1762,1217,1219.0,1.49,0
1763,1217,1213.0,1.49,0
1764,1216,1211.0,1.48,0
1765,1200,1203.0,1.47,0
1766,1191,1197.0,1.45,0
1767,1200,1200.0,1.47,0
1768,1205,1204.0,1.47,0
1769,1200,1200.0,1.47,0
1770,1197,1195.0,1.46,0
1771,1194,1191.0,1.46,0
1772,1193,1189.0,1.46,0
1773,1200,1199.0,1.47,0
1774,1200,1200.0,1.47,0
1775,1200,1219.0,1.47,0
1776,1228,1231.0,1.5,0
1777,1233,1239.0,1.51,0
1778,1245,1246.0,1.52,0
1779,1232,1232.0,1.5,0
1780,1223,1225.0,1.49,0
1781,1268,1264.0,1.55,0
1782,1262,1263.0,1.54,0
1783,1258,1254.0,1.54,0
1784,1259,1255.0,1.54,0
1785,1255,1255.0,1.53,0
1786,1253,1254.0,1.53,0
1787,1247,1242.0,1.52,0
1788,1232,1230.0,1.5,0
1789,1232,1229.0,1.5,0
1790,1232,1230.0,1.5,0
1791,1249,1250.0,1.53,0
1792,1258,1254.0,1.54,0
1793,1254,1249.0,1.53,0
1794,1248,1246.0,1.52,0
1795,1239,1243.0,1.51,0
1796,1239,1234.0,1.51,0
1797,1238,1244.0,1.51,0
1798,1238,1242.0,1.51,0
1799,1230,1232.0,1.5,0
1800,1229,1230.0,1.5,0
1801,1246,1245.0,1.52,0
1802,1248,1257.0,1.52,0
1803,1238,1238.0,1.51,0
1804,1233,1233.0,1.51,0
1805,1233,1238.0,1.51,0
1806,1241,1240.0,1.52,0
1807,1235,1239.0,1.51,0
1808,1238,1236.0,1.51,0
1809,1258,1254.0,1.54,0
1810,1247,1246.0,1.52,0
1811,1248,1243.0,1.52,0
1812,1258,1261.0,1.54,0
1813,1265,1265.0,1.54,0
1814,1267,1264.0,1.55,0
1815,1263,1264.0,1.54,0
1816,1259,1254.0,1.54,0
1817,1251,1250.0,1.53,0
1818,1249,1242.0,1.53,0
1819,1227,1226.0,1.5,0
1820,1223,1221.0,1.49,0
1821,1216,1217.0,1.48,0
1822,1216,1217.0,1.48,0
1823,1207,1204.0,1.47,0
1824,1199,1203.0,1.46,0
1825,1189,1185.0,1.45,0
1826,1205,1201.0,1.47,0
1827,1228,1232.0,1.5,0
1828,1233,1232.0,1.51,0
1829,1222,1229.0,1.49,0
1830,1253,1251.0,1.53,0
1831,1254,1251.0,1.53,0
1832,1244,1245.0,1.52,0
1833,1241,1234.0,1.52,0
1834,1238,1239.0,1.51,0
1835,1234,1232.0,1.51,0
1836,1234,1234.0,1.51,0
1837,1233,1232.0,1.51,0
1838,1232,1232.0,1.5,0
1839,1230,1230.0,1.5,0
1840,1231,1231.0,1.5,0
1841,1231,1232.0,1.5,0
1842,1223,1223.0,1.49,0
1843,1219,1222.0,1.49,0
1844,1218,1216.0,1.49,0
1845,1223,1221.0,1.49,0
1846,1226,1228.0,1.5,0
1847,1220,1219.0,1.49,0
1848,1226,1227.0,1.5,0
1849,1226,1223.0,1.5,0
1850,1222,1216.0,1.49,0
1851,1221,1223.0,1.49,0
1852,1221,1225.0,1.49,0
1853,1221,1220.0,1.49,0
1854,1217,1217.0,1.49,0
1855,1217,1213.0,1.49,0
1856,1213,1205.0,1.48,0
1857,1225,1228.0,1.5,0
1858,1227,1229.0,1.5,0
1859,1234,1232.0,1.51,0
1860,1232,1230.0,1.5,0
1861,1232,1235.0,1.5,0
1862,1247,1244.0,1.52,0
1863,1238,1235.0,1.51,0
1864,1232,1232.0,1.5,0
1865,1228,1222.0,1.5,0
1866,1235,1237.0,1.51,0
1867,1235,1230.0,1.51,0
1868,1221,1225.0,1.49,0
1869,1218,1216.0,1.49,0
1870,1215,1213.0,1.48,0
1871,1205,1210.0,1.47,0
1872,1203,1200.0,1.47,0
1873,1203,1208.0,1.47,0
1874,1202,1204.0,1.47,0
1875,1202,1200.0,1.47,0
1876,1200,1198.0,1.47,0
1877,1195,1194.0,1.46,0
1878,1209,1202.0,1.48,0
1879,1193,1197.0,1.46,0
1880,1186,1184.0,1.45,0
1881,1182,1185.0,1.44,0
1882,1181,1187.0,1.44,0
1883,1185,1179.0,1.45,0
1884,1177,1178.0,1.44,0
1885,1202,1203.0,1.47,0
1886,1198,1200.0,1.46,0
1887,1198,1199.0,1.46,0
1888,1193,1193.0,1.46,0
1889,1185,1186.0,1.45,0
1890,1179,1185.0,1.44,0
1891,1183,1187.0,1.44,0
1892,1191,1188.0,1.45,0
1893,1211,1209.0,1.48,0
1894,1231,1232.0,1.5,0
1895,1211,1218.0,1.48,0
1896,1211,1212.0,1.48,0
1897,1210,1214.0,1.48,0
1898,1213,1205.0,1.48,0
1899,1214,1211.0,1.48,0
1900,1206,1211.0,1.47,0
1901,1206,1207.0,1.47,0
1902,1189,1191.0,1.45,0
1903,1213,1207.0,1.48,0
1904,1213,1213.0,1.48,0
1905,1210,1210.0,1.48,0
1906,1229,1232.0,1.5,0
1907,1219,1226.0,1.49,0
1908,1226,1229.0,1.5,0
1909,1227,1226.0,1.5,0
1910,1205,1203.0,1.47,0
1911,1209,1203.0,1.48,0
1912,1203,1207.0,1.47,0
1913,1205,1206.0,1.47,0
1914,1206,1214.0,1.47,0
1915,1205,1203.0,1.47,0
1916,1211,1213.0,1.48,0
1917,1201,1210.0,1.47,0
1918,1203,1203.0,1.47,0
1919,1202,1200.0,1.47,0
1920,1194,1199.0,1.46,0
1921,1189,1191.0,1.45,0
1922,1187,1184.0,1.45,0
1923,1199,1202.0,1.46,0
1924,1229,1232.0,1.5,0
1925,1219,1217.0,1.49,0
1926,1232,1232.0,1.5,0
1927,1241,1243.0,1.52,0
1928,1235,1232.0,1.51,0
1929,1239,1235.0,1.51,0
1930,1232,1232.0,1.5,0
1931,1216,1218.0,1.48,0
1932,1213,1207.0,1.48,0
1933,1215,1218.0,1.48,0
1934,1232,1231.0,1.5,0
1935,1225,1221.0,1.5,0
1936,1213,1212.0,1.48,0
1937,1229,1230.0,1.5,0
1938,1225,1233.0,1.5,0
1939,1232,1237.0,1.5,0
1940,1246,1243.0,1.52,0
1941,1232,1231.0,1.5,0
1942,1226,1229.0,1.5,0
1943,1223,1229.0,1.49,0
1944,1217,1217.0,1.49,0
1945,1215,1217.0,1.48,0
1946,1204,1209.0,1.47,0
1947,1214,1211.0,1.48,0
1948,1209,1210.0,1.48,0
1949,1214,1215.0,1.48,0
1950,1208,1213.0,1.47,0
1951,1209,1213.0,1.48,0
1952,1206,1202.0,1.47,0
1953,1209,1207.0,1.48,0
1954,1265,1264.0,1.54,0
1955,1251,1256.0,1.53,0
1956,1243,1242.0,1.52,0
1957,1233,1233.0,1.51,0
1958,1225,1226.0,1.5,0
1959,1226,1219.0,1.5,0
1960,1218,1216.0,1.49,0
1961,1209,1206.0,1.48,0
1962,1213,1213.0,1.48,0
1963,1205,1210.0,1.47,0
1964,1221,1222.0,1.49,0
1965,1223,1220.0,1.49,0
1966,1219,1216.0,1.49,0
1967,1243,1218.0,1.52,0
1968,1211,1212.0,1.48,0
1969,1223,1225.0,1.49,0
1970,1232,1232.0,1.5,0
1971,1227,1227.0,1.5,0
1972,1219,1217.0,1.49,0
1973,1217,1215.0,1.49,0
1974,1209,1205.0,1.48,0
1975,1206,1202.0,1.47,0
1976,1215,1210.0,1.48,0
1977,1209,1211.0,1.48,0
1978,1229,1232.0,1.5,0
1979,1259,1269.0,1.54,0
1980,1273,1271.0,1.55,0
1981,1305,1296.0,1.59,0
1982,1305,1313.0,1.59,0
1983,1329,1328.0,1.62,0
1984,1322,1315.0,1.61,0
1985,1313,1315.0,1.6,0
1986,1296,1296.0,1.58,0
1987,1314,1311.0,1.6,0
1988,1324,1317.0,1.62,0
1989,1325,1326.0,1.62,0
1990,1327,1323.0,1.62,0
1991,1316,1323.0,1.61,0
1992,1327,1325.0,1.62,0
1993,1323,1323.0,1.62,0
1994,1311,1315.0,1.6,0
1995,1310,1307.0,1.6,0
1996,1299,1296.0,1.59,0
1997,1294,1296.0,1.58,0
1998,1281,1281.0,1.56,0
1999,1277,1276.0,1.56,0
2000,688,686.0,0.84,1
2001,692,695.0,0.84,1
2002,737,739.0,0.9,1
2003,736,736.0,0.9,1
2004,732,723.0,0.89,1
2005,721,721.0,0.88,1
2006,722,720.0,0.88,1
2007,723,721.0,0.88,1
2008,714,715.0,0.87,1
2009,706,710.0,0.86,1
2010,704,709.0,0.86,1
2011,699,700.0,0.85,1
2012,689,691.0,0.84,1
2013,681,679.0,0.83,1
2014,686,684.0,0.84,1
2015,682,681.0,0.83,1
2016,685,686.0,0.84,1
2017,683,681.0,0.83,1
2018,685,687.0,0.84,1
2019,684,686.0,0.84,1
2020,686,684.0,0.84,1
2021,679,667.0,0.83,1
2022,704,704.0,0.86,1
2023,701,703.0,0.86,1
2024,721,721.0,0.88,1
2025,737,739.0,0.9,1
2026,725,727.0,0.89,1
2027,720,720.0,0.88,1
2028,718,720.0,0.88,1
2029,715,715.0,0.87,1
2030,704,697.0,0.86,1
2031,702,697.0,0.86,1
2032,688,690.0,0.84,1
2033,688,689.0,0.84,1
2034,686,688.0,0.84,1
2035,683,675.0,0.83,1
2036,679,678.0,0.83,1
2037,677,683.0,0.83,1
2038,682,681.0,0.83,1
2039,674,679.0,0.82,1
2040,669,672.0,0.82,1
2041,669,674.0,0.82,1
2042,679,686.0,0.83,1
2043,690,687.0,0.84,1
2044,679,683.0,0.83,1
2045,676,675.0,0.83,1
2046,672,669.0,0.82,1
2047,674,668.0,0.82,1
2048,668,670.0,0.82,1
2049,660,658.0,0.81,1
2050,656,654.0,0.8,1
2051,650,654.0,0.79,1
2052,656,656.0,0.8,1
2053,657,659.0,0.8,1
2054,700,699.0,0.85,1
2055,705,704.0,0.86,1
2056,726,730.0,0.89,1
2057,735,735.0,0.9,1
2058,731,733.0,0.89,1
2059,727,726.0,0.89,1
2060,720,720.0,0.88,1
2061,702,703.0,0.86,1
2062,697,703.0,0.85,1
2063,691,693.0,0.84,1
2064,687,687.0,0.84,1
2065,679,678.0,0.83,1
2066,670,669.0,0.82,1
2067,663,661.0,0.81,1
2068,657,658.0,0.8,1
2069,657,658.0,0.8,1
2070,650,653.0,0.79,1
2071,680,678.0,0.83,1
2072,685,682.0,0.84,1
2073,689,695.0,0.84,1
2074,699,694.0,0.85,1
2075,692,698.0,0.84,1
2076,693,690.0,0.85,1
2077,687,686.0,0.84,1
2078,685,679.0,0.84,1
2079,672,672.0,0.82,1
2080,670,671.0,0.82,1
2081,674,678.0,0.82,1
2082,675,674.0,0.82,1
2083,673,671.0,0.82,1
2084,666,673.0,0.81,1
2085,673,674.0,0.82,1
2086,687,685.0,0.84,1
2087,687,685.0,0.84,1
2088,690,689.0,0.84,1
2089,685,682.0,0.84,1
2090,687,686.0,0.84,1
2091,681,682.0,0.83,1
2092,672,675.0,0.82,1
2093,673,668.0,0.82,1
2094,666,667.0,0.81,1
2095,656,663.0,0.8,1
2096,671,672.0,0.82,1
2097,675,669.0,0.82,1
2098,678,676.0,0.83,1
2099,677,679.0,0.83,1
2100,623,627.0,0.76,1
2101,628,629.0,0.77,1
2102,621,621.0,0.76,1
2103,621,621.0,0.76,1
2104,608,617.0,0.74,1
2105,615,611.0,0.75,1
2106,633,627.0,0.77,1
2107,630,633.0,0.77,1
2108,638,638.0,0.78,1
2109,656,658.0,0.8,1
2110,656,656.0,0.8,1
2111,651,647.0,0.79,1
2112,641,640.0,0.78,1
2113,635,626.0,0.78,1
2114,638,639.0,0.78,1
2115,640,638.0,0.78,1
2116,629,629.0,0.77,1
2117,653,658.0,0.8,1
2118,676,659.0,0.83,1
2119,656,656.0,0.8,1
2120,642,640.0,0.78,1
2121,636,635.0,0.78,1
2122,635,641.0,0.78,1
2123,655,656.0,0.8,1
2124,669,662.0,0.82,1
2125,677,677.0,0.83,1
2126,697,693.0,0.85,1
2127,678,683.0,0.83,1
2128,674,673.0,0.82,1
2129,669,675.0,0.82,1
2130,672,670.0,0.82,1
2131,685,679.0,0.84,1
2132,686,686.0,0.84,1
2133,695,695.0,0.85,1
2134,700,698.0,0.85,1
2135,725,716.0,0.89,1
2136,707,704.0,0.86,1
2137,704,710.0,0.86,1
2138,723,727.0,0.88,1
2139,752,751.0,0.92,1
2140,771,766.0,0.94,1
2141,774,781.0,0.95,1
2142,795,793.0,0.97,1
2143,787,784.0,0.96,1
2144,783,770.0,0.96,1
2145,755,757.0,0.92,1
2146,758,752.0,0.93,1
2147,726,727.0,0.89,1
2148,722,721.0,0.88,1
2149,720,713.0,0.88,1
2150,699,690.0,0.85,1
2151,694,691.0,0.85,1
2152,685,688.0,0.84,1
2153,681,679.0,0.83,1
2154,678,673.0,0.83,1
2155,656,659.0,0.8,1
2156,652,658.0,0.8,1
2157,660,656.0,0.81,1
2158,670,668.0,0.82,1
2159,675,672.0,0.82,1
2160,704,700.0,0.86,1
2161,743,751.0,0.91,1
2162,750,752.0,0.92,1
2163,762,763.0,0.93,1
2164,751,752.0,0.92,1
2165,752,749.0,0.92,1
2166,752,752.0,0.92,1
2167,755,752.0,0.92,1
2168,784,784.0,0.96,1
2169,770,770.0,0.94,1
2170,768,770.0,0.94,1
2171,765,762.0,0.93,1
2172,754,752.0,0.92,1
2173,752,749.0,0.92,1
2174,746,742.0,0.91,1
2175,733,731.0,0.89,1
2176,739,738.0,0.9,1
2177,741,741.0,0.9,1
2178,724,723.0,0.88,1
2179,713,718.0,0.87,1
2180,711,709.0,0.87,1
2181,698,700.0,0.85,1
2182,698,697.0,0.85,1
2183,694,699.0,0.85,1
2184,683,688.0,0.83,1
2185,687,690.0,0.84,1
2186,669,667.0,0.82,1
2187,669,661.0,0.82,1
2188,657,653.0,0.8,1
2189,649,651.0,0.79,1
2190,650,651.0,0.79,1
2191,654,646.0,0.8,1
2192,645,641.0,0.79,1
2193,635,638.0,0.78,1
2194,615,617.0,0.75,1
2195,624,625.0,0.76,1
2196,619,624.0,0.76,1
2197,614,620.0,0.75,1
2198,614,615.0,0.75,1
2199,611,610.0,0.75,1
2200,1329,1.62,,1
2201,1344,1.64,,1
2202,1360,1.66,,1
2203,1360,1.66,,1
2204,1330,1.62,,1
2205,1338,1.63,,1
2206,1339,1.64,,1
2207,1364,1.67,,1
2208,1388,1.7,,1
2209,1377,1.68,,1
2210,1366,1.68,,1
2211,1349,1.64,,1
2212,1339,1.64,,1
2213,1328,1.62,,1
2214,1296,1.59,,1
2215,1291,1.58,,1
2216,1285,1.57,,1
2217,1305,1.59,,1
2218,1322,1.61,,1
2219,1315,1.61,,1
2220,1325,1.62,,1
2221,1339,1.62,,1
2222,1325,1.63,,1
2223,1328,1.63,,1
2224,1299,1.59,,1
2225,1293,1.59,,1
2226,1280,1.57,,1
2227,1264,1.54,,1
2228,1264,1.55,,1
2229,1262,1.54,,1
2230,1251,1.53,,1
2231,1296,1.58,,1
2232,1379,1.68,,1
2233,1403,1.72,,1
2234,1378,1.68,,1
2235,1390,1.7,,1
2236,1421,1.74,,1
2237,1487,1.81,,1
2238,1495,1.82,,1
2239,1490,1.83,,1
2240,1495,1.82,,1
2241,1458,1.79,,1
2242,1449,1.77,,1
2243,1433,1.75,,1
2244,1413,1.72,,1
2245,1399,1.71,,1
2246,1392,1.69,,1
2247,1415,1.73,,1
2248,1441,1.76,,1
2249,1430,1.75,,1
2250,1428,1.74,,1
2251,1453,1.78,,1
2252,1472,1.8,,1
2253,1492,1.82,,1
2254,1490,1.82,,1
2255,1489,1.82,,1
2256,1478,1.81,,1
2257,1459,1.78,,1
2258,1454,1.77,,1
2259,1434,1.76,,1
2260,1424,1.73,,1
2261,1397,1.7,,1
2262,1417,1.72,,1
2263,1415,1.73,,1
2264,1423,1.73,,1
2265,1412,1.72,,1
2266,1399,1.71,,1
2267,1429,1.74,,1
2268,1479,1.81,,1
2269,1473,1.81,,1
2270,1467,1.79,,1
2271,1456,1.78,,1
2272,1465,1.79,,1
2273,1454,1.78,,1
2274,1428,1.75,,1
2275,1425,1.74,,1
2276,1410,1.73,,1
2277,1409,1.71,,1
2278,1415,1.73,,1
2279,1443,1.76,,1
2280,1425,1.74,,1
2281,1419,1.73,,1
2282,1424,1.74,,1
2283,1458,1.78,,1
2284,1467,1.81,,1
2285,1471,1.8,,1
2286,1457,1.78,,1
2287,1441,1.76,,1
2288,1437,1.76,,1
2289,1427,1.74,,1
2290,1397,1.7,,1
2291,1386,1.69,,1
2292,1371,1.67,,1
2293,1395,1.7,,1
2294,1403,1.71,,1
2295,1392,1.7,,1
2296,1381,1.69,,1
2297,1360,1.66,,1
2298,1360,1.66,,1
2299,1382,1.68,,1
2300,1353,1.65,,1
2301,1339,1.64,,1
2302,1330,1.63,,1
2303,1312,1.61,,1
2304,1294,1.58,,1
2305,1285,1.57,,1
2306,1271,1.55,,1
2307,1258,1.54,,1
2308,1269,1.55,,1
2309,1323,1.62,,1
2310,1317,1.61,,1
2311,1306,1.59,,1
2312,1299,1.58,,1
2313,1299,1.58,,1
2314,1352,1.65,,1
2315,1392,1.69,,1
2316,1367,1.67,,1
2317,1354,1.66,,1
2318,1346,1.64,,1
2319,1340,1.63,,1
2320,1315,1.6,,1
2321,1303,1.59,,1
2322,1298,1.58,,1
2323,1302,1.58,,1
2324,1317,1.61,,1
2325,1309,1.6,,1
2326,1294,1.58,,1
2327,1273,1.55,,1
2328,1265,1.54,,1
2329,1273,1.56,,1
2330,1274,1.56,,1
2331,1275,1.56,,1
2332,1270,1.55,,1
2333,1289,1.58,,1
2334,1296,1.59,,1
2335,1326,1.62,,1
2336,1325,1.61,,1
2337,1301,1.59,,1
2338,1286,1.57,,1
2339,1277,1.55,,1
2340,1281,1.57,,1
2341,1275,1.56,,1
2342,1264,1.54,,1
2343,1270,1.55,,1
2344,1271,1.56,,1
2345,1268,1.55,,1
2346,1255,1.53,,1
2347,1230,1.5,,1
2348,1232,1.51,,1
2349,1226,1.5,,1
2350,1206,1.47,,1
2351,1201,1.47,,1
2352,1190,1.45,,1
2353,1163,1.42,,1
2354,1158,1.41,,1
2355,1163,1.41,,1
2356,1182,1.44,,1
2357,1166,1.42,,1
2358,1165,1.42,,1
2359,1165,1.41,,1
2360,1139,1.39,,1
2361,1126,1.38,,1
2362,1122,1.37,,1
2363,1103,1.35,,1
2364,1095,1.35,,1
2365,1090,1.33,,1
2366,1084,1.32,,1
2367,1098,1.33,,1
2368,1114,1.36,,1
2369,1117,1.36,,1
2370,1197,1.47,,1
2371,1185,1.45,,1
2372,1185,1.44,,1
2373,1173,1.43,,1
2374,1169,1.43,,1
2375,1158,1.42,,1
2376,1177,1.43,,1
2377,1181,1.44,,1
2378,1169,1.43,,1
2379,1167,1.43,,1
2380,1152,1.41,,1
2381,1149,1.4,,1
2382,1137,1.39,,1
2383,1132,1.38,,1
2384,1136,1.38,,1
2385,1133,1.38,,1
2386,1125,1.37,,1
2387,1123,1.37,,1
2388,1115,1.37,,1
2389,1104,1.35,,1
2390,1092,1.34,,1
2391,1086,1.33,,1
2392,1070,1.31,,1
2393,1055,1.29,,1
2394,1051,1.28,,1
2395,1041,1.27,,1
2396,1034,1.26,,1
2397,1027,1.26,,1
2398,1017,1.24,,1
2399,1008,1.23,,1
2400,998,1.22,,1
2401,1006,1.22,,1
2402,994,1.21,,1
2403,986,1.2,,1
2404,984,1.2,,1
2405,985,1.21,,1
2406,979,1.2,,1
2407,966,1.19,,1
2408,975,1.19,,1
2409,980,1.19,,1
2410,1008,1.22,,1
2411,1007,1.23,,1
2412,1011,1.23,,1
2413,1009,1.23,,1
2414,1006,1.22,,1
2415,993,1.21,,1
2416,978,1.2,,1
2417,978,1.19,,1
2418,983,1.19,,1
2419,983,1.2,,1
2420,979,1.19,,1
2421,981,1.19,,1
2422,985,1.2,,1
2423,978,1.19,,1
2424,969,1.18,,1
2425,961,1.17,,1
2426,956,1.17,,1
2427,958,1.16,,1
2428,945,1.16,,1
2429,957,1.16,,1
2430,946,1.16,,1
2431,946,1.15,,1
2432,950,1.15,,1
2433,923,1.15,,1
2434,938,1.14,,1
2435,933,1.14,,1
2436,941,1.15,,1
2437,967,1.18,,1
2438,971,1.18,,1
2439,967,1.18,,1
2440,956,1.17,,1
2441,955,1.17,,1
2442,944,1.15,,1
2443,942,1.15,,1
2444,937,1.14,,1
2445,937,1.14,,1
2446,944,1.15,,1
2447,941,1.15,,1
2448,928,1.15,,1
2449,938,1.15,,1
2450,931,1.14,,1
2451,918,1.13,,1
2452,914,1.11,,1
2453,906,1.11,,1
2454,908,1.11,,1
2455,911,1.12,,1
2456,918,1.11,,1
2457,912,1.11,,1
2458,913,1.12,,1
2459,914,1.12,,1
2460,909,1.11,,1
2461,911,1.11,,1
2462,913,1.12,,1
2463,912,1.11,,1
2464,911,1.11,,1
2465,902,1.1,,1
2466,903,1.11,,1
2467,903,1.1,,1
2468,903,1.1,,1
2469,901,1.09,,1
2470,898,1.1,,1
2471,901,1.1,,1
2472,899,1.09,,1
2473,900,1.11,,1
2474,907,1.11,,1
2475,903,1.1,,1
2476,889,1.09,,1
2477,881,1.06,,1
2478,863,1.07,,1
2479,870,1.07,,1
2480,879,1.07,,1
2481,866,1.07,,1
2482,880,1.07,,1
2483,877,1.07,,1
2484,867,1.07,,1
2485,867,1.06,,1
2486,858,1.04,,1
2487,855,1.04,,1
2488,865,1.06,,1
2489,869,1.06,,1
2490,867,1.06,,1
2491,874,1.06,,1
2492,866,1.06,,1
2493,880,1.07,,1
2494,877,1.07,,1
2495,871,1.05,,1
2496,864,1.06,,1
2497,870,1.05,,1
2498,880,1.07,,1
2499,871,1.07,,1
2500,876,1.07,,1
2501,880,1.07,,1
2502,878,1.07,,1
2503,871,1.07,,1
2504,865,1.06,,1
2505,858,1.05,,1
2506,857,1.05,,1
2507,857,1.04,,1
2508,855,1.05,,1
2509,855,1.05,,1
2510,859,1.07,,1
2511,856,1.04,,1
2512,847,1.04,,1
2513,852,1.03,,1
2514,842,1.03,,1
2515,837,1.02,,1
2516,862,1.04,,1
2517,867,1.05,,1
2518,867,1.06,,1
2519,869,1.06,,1
2520,871,1.06,,1
2521,865,1.06,,1
2522,877,1.07,,1
2523,879,1.07,,1
2524,887,1.08,,1
2525,903,1.08,,1
2526,902,1.1,,1
2527,906,1.1,,1
2528,899,1.1,,1
2529,900,1.1,,1
2530,895,1.08,,1
2531,891,1.09,,1
2532,892,1.09,,1
2533,899,1.1,,1
2534,900,1.1,,1
2535,898,1.1,,1
2536,898,1.1,,1
2537,899,1.1,,1
2538,901,1.11,,1
2539,893,1.09,,1
2540,887,1.09,,1
2541,886,1.08,,1
2542,891,1.09,,1
2543,887,1.08,,1
2544,885,1.08,,1
2545,885,1.08,,1
2546,887,1.08,,1
2547,879,1.07,,1
2548,893,1.09,,1
2549,909,1.11,,1
2550,910,1.11,,1
2551,912,1.11,,1
2552,913,1.12,,1
2553,917,1.13,,1
2554,913,1.12,,1
2555,917,1.14,,1
2556,919,1.12,,1
2557,915,1.12,,1
2558,913,1.12,,1
2559,914,1.12,,1
2560,916,1.16,,1
2561,917,1.13,,1
2562,922,1.13,,1
2563,933,1.11,,1
2564,938,1.16,,1
2565,934,1.14,,1
2566,928,1.13,,1
2567,927,1.13,,1
2568,921,1.14,,1
2569,931,1.14,,1
2570,944,1.15,,1
2571,944,1.16,,1
2572,944,1.15,,1
2573,949,1.15,,1
2574,945,1.15,,1
2575,943,1.16,,1
2576,945,1.14,,1
2577,953,1.15,,1
2578,954,1.16,,1
2579,957,1.16,,1
2580,975,1.19,,1
2581,979,1.2,,1
2582,983,1.21,,1
2583,983,1.21,,1
2584,979,1.2,,1
2585,977,1.19,,1
2586,976,1.2,,1
2587,982,1.19,,1
2588,982,1.19,,1
2589,976,1.19,,1
2590,976,1.19,,1
2591,981,1.19,,1
2592,977,1.19,,1
2593,988,1.21,,1
2594,991,1.23,,1
2595,1002,1.23,,1
2596,1007,1.23,,1
2597,1009,1.23,,1
2598,1010,1.23,,1
2599,1012,1.23,,1
2600,1001,1.23,,1
2601,1013,1.22,,1
2602,998,1.21,,1
2603,1018,1.24,,1
2604,1021,1.28,,1
2605,1056,1.29,,1
2606,1065,1.31,,1
2607,1065,1.29,,1
2608,1079,1.29,,1
2609,1049,1.3,,1
2610,1057,1.26,,1
2611,1085,1.29,,1
2612,1061,1.3,,1
2613,1051,1.28,,1
2614,1056,1.27,,1
2615,1040,1.27,,1
2616,1040,1.27,,1
2617,1054,1.27,,1
2618,1041,1.3,,1
2619,1047,1.28,,1
2620,1044,1.27,,1
2621,1061,1.29,,1
2622,1085,1.29,,1
2623,1072,1.31,,1
2624,1072,1.31,,1
2625,1071,1.31,,1
2626,1069,1.31,,1
2627,1072,1.3,,1
2628,1070,1.31,,1
2629,1076,1.32,,1
2630,1086,1.32,,1
2631,1072,1.32,,1
2632,1072,1.31,,1
2633,1073,1.32,,1
2634,1085,1.32,,1
2635,1082,1.32,,1
2636,1095,1.31,,1
2637,1079,1.32,,1
2638,1127,1.38,,1
2639,1121,1.37,,1
2640,1110,1.36,,1
2641,1111,1.35,,1
2642,1103,1.35,,1
2643,1118,1.34,,1
2644,1105,1.35,,1
2645,1107,1.35,,1
2646,1114,1.33,,1
2647,1089,1.33,,1
2648,1104,1.32,,1
2649,1088,1.32,,1
2650,1090,1.33,,1
2651,1091,1.33,,1
2652,1073,1.33,,1
2653,1112,1.35,,1
2654,1114,1.35,,1
2655,1103,1.35,,1
2656,1143,1.39,,1
2657,1141,1.39,,1
2658,1141,1.39,,1
2659,1155,1.39,,1
2660,1138,1.39,,1
2661,1120,1.38,,1
2662,1126,1.38,,1
2663,1126,1.37,,1
2664,1119,1.36,,1
2665,1122,1.37,,1
2666,1114,1.36,,1
2667,1113,1.36,,1
2668,1120,1.36,,1
2669,1110,1.36,,1
2670,1109,1.36,,1
2671,1115,1.35,,1
2672,1110,1.36,,1
2673,1104,1.36,,1
2674,1104,1.35,,1
2675,1102,1.35,,1
2676,1088,1.35,,1
2677,1122,1.36,,1
2678,1119,1.37,,1
2679,1092,1.35,,1
2680,1110,1.35,,1
2681,1118,1.35,,1
2682,1124,1.35,,1
2683,1115,1.36,,1
2684,1079,1.35,,1
2685,1117,1.37,,1
2686,1135,1.38,,1
2687,1116,1.37,,1
2688,1134,1.37,,1
2689,1146,1.37,,1
2690,1127,1.37,,1
2691,1121,1.37,,1
2692,1109,1.36,,1
2693,1106,1.35,,1
2694,1119,1.37,,1
2695,1150,1.43,,1
2696,1159,1.42,,1
2697,1149,1.4,,1
2698,1147,1.4,,1
2699,1140,1.39,,1
2700,996,997.0,1.22,1
2701,996,1002.0,1.22,1
2702,991,995.0,1.21,1
2703,976,978.0,1.19,1
2704,976,976.0,1.19,1
2705,974,969.0,1.19,1
2706,972,971.0,1.19,1
2707,966,976.0,1.18,1
2708,966,970.0,1.18,1
2709,961,955.0,1.17,1
2710,961,955.0,1.17,1
2711,961,967.0,1.17,1
2712,956,951.0,1.17,1
2713,944,940.0,1.15,1
2714,937,939.0,1.14,1
2715,942,943.0,1.15,1
2716,933,944.0,1.14,1
2717,979,981.0,1.2,1
2718,975,983.0,1.19,1
2719,977,980.0,1.19,1
2720,974,973.0,1.19,1
2721,957,959.0,1.17,1
2722,961,962.0,1.17,1
2723,978,976.0,1.19,1
2724,974,975.0,1.19,1
2725,970,976.0,1.18,1
2726,973,972.0,1.19,1
2727,966,965.0,1.18,1
2728,960,960.0,1.17,1
2729,975,974.0,1.19,1
2730,958,958.0,1.17,1
2731,960,960.0,1.17,1
2732,948,949.0,1.16,1
2733,946,944.0,1.16,1
2734,948,931.0,1.16,1
2735,947,941.0,1.16,1
2736,944,947.0,1.15,1
2737,945,944.0,1.15,1
2738,944,944.0,1.15,1
2739,934,925.0,1.14,1
2740,938,937.0,1.15,1
2741,927,930.0,1.13,1
2742,922,925.0,1.13,1
2743,929,930.0,1.13,1
2744,940,937.0,1.15,1
2745,939,937.0,1.15,1
2746,944,944.0,1.15,1
2747,945,945.0,1.15,1
2748,932,929.0,1.14,1
2749,935,935.0,1.14,1
2750,944,943.0,1.15,1
2751,940,938.0,1.15,1
2752,947,946.0,1.16,1
2753,944,943.0,1.15,1
2754,942,944.0,1.15,1
2755,944,941.0,1.15,1
2756,950,946.0,1.16,1
2757,945,949.0,1.15,1
2758,945,945.0,1.15,1
2759,942,944.0,1.15,1
2760,944,942.0,1.15,1
2761,958,957.0,1.17,1
2762,960,960.0,1.17,1
2763,954,950.0,1.16,1
2764,944,948.0,1.15,1
2765,938,940.0,1.15,1
2766,942,941.0,1.15,1
2767,937,934.0,1.14,1
2768,944,944.0,1.15,1
2769,950,944.0,1.16,1
2770,951,949.0,1.16,1
2771,944,944.0,1.15,1
2772,943,939.0,1.15,1
2773,933,931.0,1.14,1
2774,929,928.0,1.13,1
2775,928,928.0,1.13,1
2776,931,923.0,1.14,1
2777,919,918.0,1.12,1
2778,924,922.0,1.13,1
2779,919,916.0,1.12,1
2780,925,919.0,1.13,1
2781,924,923.0,1.13,1
2782,912,912.0,1.11,1
2783,897,901.0,1.1,1
2784,901,901.0,1.1,1
2785,900,895.0,1.1,1
2786,903,896.0,1.1,1
2787,912,914.0,1.11,1
2788,912,910.0,1.11,1
2789,908,912.0,1.11,1
2790,922,915.0,1.13,1
2791,928,926.0,1.13,1
2792,939,943.0,1.15,1
2793,958,960.0,1.17,1
2794,1008,1007.0,1.23,1
2795,1017,1015.0,1.24,1
2796,1040,1040.0,1.27,1
2797,1036,1029.0,1.26,1
2798,1005,1019.0,1.23,1
2799,1008,1005.0,1.23,1
2800,990,992.0,1.21,1
2801,992,986.0,1.21,1
2802,985,987.0,1.2,1
2803,981,979.0,1.2,1
2804,976,977.0,1.19,1
2805,976,974.0,1.19,1
2806,963,966.0,1.18,1
2807,963,960.0,1.18,1
2808,962,960.0,1.17,1
2809,949,950.0,1.16,1
2810,950,951.0,1.16,1
2811,946,946.0,1.16,1
2812,953,960.0,1.16,1
2813,975,974.0,1.19,1
2814,967,964.0,1.18,1
2815,955,958.0,1.17,1
2816,950,947.0,1.16,1
2817,933,935.0,1.14,1
2818,934,934.0,1.14,1
2819,935,940.0,1.14,1
2820,925,926.0,1.13,1
2821,938,939.0,1.15,1
2822,931,941.0,1.14,1
2823,937,935.0,1.14,1
2824,934,934.0,1.14,1
2825,928,924.0,1.13,1
2826,926,926.0,1.13,1
2827,921,926.0,1.12,1
2828,929,924.0,1.13,1
2829,935,931.0,1.14,1
2830,930,931.0,1.14,1
2831,957,957.0,1.17,1
2832,1013,1014.0,1.24,1
2833,1006,1001.0,1.23,1
2834,984,986.0,1.2,1
2835,976,975.0,1.19,1
2836,977,981.0,1.19,1
2837,985,992.0,1.2,1
2838,993,989.0,1.21,1
2839,999,993.0,1.22,1
2840,994,992.0,1.21,1
2841,993,996.0,1.21,1
2842,995,991.0,1.21,1
2843,995,999.0,1.21,1
2844,1008,1009.0,1.23,1
2845,1002,1001.0,1.22,1
2846,995,994.0,1.21,1
2847,996,993.0,1.22,1
2848,985,987.0,1.2,1
2849,981,985.0,1.2,1
2850,999,1003.0,1.22,1
2851,990,986.0,1.21,1
2852,980,981.0,1.2,1
2853,988,990.0,1.21,1
2854,991,980.0,1.21,1
2855,993,989.0,1.21,1
2856,992,991.0,1.21,1
2857,997,995.0,1.22,1
2858,1037,1037.0,1.27,1
2859,1020,1023.0,1.25,1
2860,1023,1023.0,1.25,1
2861,1036,1030.0,1.26,1
2862,1018,1020.0,1.24,1
2863,1008,1011.0,1.23,1
2864,1008,1009.0,1.23,1
2865,1015,1011.0,1.24,1
2866,1015,1015.0,1.24,1
2867,1043,1040.0,1.27,1
2868,1037,1035.0,1.27,1
2869,1033,1033.0,1.26,1
2870,1030,1023.0,1.26,1
2871,1034,1037.0,1.26,1
2872,1069,1070.0,1.31,1
2873,1066,1064.0,1.3,1
2874,1060,1059.0,1.29,1
2875,1035,1038.0,1.26,1
2876,1023,1036.0,1.25,1
2877,1052,1049.0,1.28,1
2878,1058,1062.0,1.29,1
2879,1058,1062.0,1.29,1
2880,1058,1063.0,1.29,1
2881,1067,1067.0,1.3,1
2882,1051,1051.0,1.28,1
2883,1037,1039.0,1.27,1
2884,1039,1036.0,1.27,1
2885,1028,1021.0,1.26,1
2886,1020,1017.0,1.25,1
2887,1009,1008.0,1.23,1
2888,1004,999.0,1.23,1
2889,997,997.0,1.22,1
2890,990,983.0,1.21,1
2891,993,997.0,1.21,1
2892,1008,1001.0,1.23,1
2893,1008,1002.0,1.23,1
2894,1008,1006.0,1.23,1
2895,1006,1008.0,1.23,1
2896,1035,1030.0,1.26,1
2897,1018,1010.0,1.24,1
2898,1008,1003.0,1.23,1
2899,991,990.0,1.21,1
2900,978,977.0,1.19,1
2901,981,989.0,1.2,1
2902,1002,1001.0,1.22,1
2903,1003,1005.0,1.22,1
2904,1031,1023.0,1.26,1
2905,1042,1041.0,1.27,1
2906,1041,1039.0,1.27,1
2907,1022,1029.0,1.25,1
2908,1017,1011.0,1.24,1
2909,1011,1015.0,1.23,1
2910,1014,1015.0,1.24,1
2911,1015,1019.0,1.24,1
2912,1064,1065.0,1.3,1
2913,1069,1072.0,1.31,1
2914,1071,1066.0,1.31,1
2915,1073,1078.0,1.31,1
2916,1089,1088.0,1.33,1
2917,1090,1090.0,1.33,1
2918,1077,1082.0,1.32,1
2919,1079,1073.0,1.32,1
2920,1071,1081.0,1.31,1
2921,1072,1068.0,1.31,1
2922,1068,1065.0,1.3,1
2923,1087,1086.0,1.33,1
2924,1092,1103.0,1.33,1
2925,1152,1151.0,1.41,1
2926,1155,1158.0,1.41,1
2927,1181,1183.0,1.44,1
2928,1187,1184.0,1.45,1
2929,1168,1167.0,1.43,1
2930,1154,1154.0,1.41,1
2931,1154,1151.0,1.41,1
2932,1170,1168.0,1.43,1
2933,1171,1166.0,1.43,1
2934,1168,1171.0,1.43,1
2935,1151,1153.0,1.41,1
2936,1151,1152.0,1.41,1
2937,1142,1138.0,1.39,1
2938,1145,1151.0,1.4,1
2939,1151,1143.0,1.41,1
2940,1136,1132.0,1.39,1
2941,1139,1142.0,1.39,1
2942,1139,1137.0,1.39,1
2943,1136,1133.0,1.39,1
2944,1129,1133.0,1.38,1
2945,1110,1104.0,1.36,1
2946,1119,1117.0,1.37,1
2947,1134,1125.0,1.38,1
2948,1127,1125.0,1.38,1
2949,1117,1118.0,1.36,1
2950,1107,1111.0,1.35,1
2951,1100,1101.0,1.34,1
2952,1130,1127.0,1.38,1
2953,1125,1123.0,1.37,1
2954,1125,1125.0,1.37,1
2955,1121,1123.0,1.37,1
2956,1127,1133.0,1.38,1
2957,1143,1141.0,1.4,1
2958,1164,1166.0,1.42,1
2959,1155,1158.0,1.41,1
2960,1170,1168.0,1.43,1
2961,1218,1222.0,1.49,1
2962,1218,1222.0,1.49,1
2963,1216,1220.0,1.48,1
2964,1216,1206.0,1.48,1
2965,1195,1195.0,1.46,1
2966,1186,1184.0,1.45,1
2967,1177,1175.0,1.44,1
2968,1148,1150.0,1.4,1
2969,1149,1152.0,1.4,1
2970,1146,1147.0,1.4,1
2971,1149,1148.0,1.4,1
2972,1139,1144.0,1.39,1
2973,1154,1152.0,1.41,1
2974,1152,1151.0,1.41,1
2975,1123,1120.0,1.37,1
2976,1113,1117.0,1.36,1
2977,1109,1106.0,1.35,1
2978,1101,1102.0,1.34,1
2979,1097,1088.0,1.34,1
2980,1091,1090.0,1.33,1
2981,1103,1101.0,1.35,1
2982,1099,1101.0,1.34,1
2983,1099,1099.0,1.34,1
2984,1123,1134.0,1.37,1
2985,1116,1116.0,1.36,1
2986,1118,1119.0,1.37,1
2987,1121,1118.0,1.37,1
2988,1104,1104.0,1.35,1
2989,1104,1104.0,1.35,1
2990,1099,1100.0,1.34,1
2991,1075,1081.0,1.31,1
2992,1098,1104.0,1.34,1
2993,1102,1096.0,1.35,1
2994,1099,1096.0,1.34,1
2995,1089,1093.0,1.33,1
2996,1093,1094.0,1.33,1
2997,1093,1099.0,1.33,1
2998,1093,1091.0,1.33,1
2999,1088,1087.0,1.33,1
3000,1089,1092.0,1.33,1
3001,1103,1099.0,1.35,1
3002,1105,1104.0,1.35,1
3003,1104,1104.0,1.35,1
3004,1099,1101.0,1.34,1
3005,1097,1103.0,1.34,1
3006,1083,1081.0,1.32,1
3007,1103,1104.0,1.35,1
3008,1109,1109.0,1.35,1
3009,1106,1106.0,1.35,1
3010,1104,1104.0,1.35,1
3011,1103,1100.0,1.35,1
3012,1100,1099.0,1.34,1
3013,1089,1093.0,1.33,1
3014,1083,1087.0,1.32,1
3015,1073,1075.0,1.31,1
3016,1069,1068.0,1.31,1
3017,1069,1072.0,1.31,1
3018,1070,1072.0,1.31,1
3019,1066,1071.0,1.3,1
3020,1090,1093.0,1.33,1
3021,1089,1092.0,1.33,1
3022,1104,1104.0,1.35,1
3023,1121,1130.0,1.37,1
3024,1140,1137.0,1.39,1
3025,1134,1134.0,1.38,1
3026,1124,1124.0,1.37,1
3027,1118,1119.0,1.37,1
3028,1104,1102.0,1.35,1
3029,1090,1089.0,1.33,1
3030,1081,1080.0,1.32,1
3031,1074,1073.0,1.31,1
3032,1077,1077.0,1.32,1
3033,1069,1071.0,1.31,1
3034,1077,1077.0,1.32,1
3035,1071,1075.0,1.31,1
3036,1061,1057.0,1.3,1
3037,1046,1049.0,1.28,1
3038,1052,1051.0,1.28,1
3039,1056,1067.0,1.29,1
3040,1054,1055.0,1.29,1
3041,1047,1047.0,1.28,1
3042,1042,1040.0,1.27,1
3043,1034,1037.0,1.26,1
3044,1007,1010.0,1.23,1
3045,1008,1005.0,1.23,1
3046,1013,1013.0,1.24,1
3047,1015,1010.0,1.24,1
3048,1015,1014.0,1.24,1
3049,1033,1036.0,1.26,1
3050,1039,1040.0,1.27,1
3051,1013,1011.0,1.24,1
3052,1005,1006.0,1.23,1
3053,1012,1017.0,1.24,1
3054,1011,1017.0,1.23,1
3055,1031,1031.0,1.26,1
3056,1021,1029.0,1.25,1
3057,1049,1046.0,1.28,1
3058,1040,1040.0,1.27,1
3059,1028,1019.0,1.26,1
3060,1015,1019.0,1.24,1
3061,1022,1019.0,1.25,1
3062,1021,1021.0,1.25,1
3063,1072,1079.0,1.31,1
3064,1120,1114.0,1.37,1
3065,1118,1113.0,1.37,1
3066,1111,1118.0,1.36,1
3067,1097,1102.0,1.34,1
3068,1093,1094.0,1.33,1
3069,1095,1092.0,1.34,1
3070,1111,1106.0,1.36,1
3071,1119,1120.0,1.37,1
3072,1136,1136.0,1.39,1
3073,1152,1149.0,1.41,1
3074,1130,1136.0,1.38,1
3075,1129,1147.0,1.38,1
3076,1167,1168.0,1.42,1
3077,1223,1226.0,1.49,1
3078,1253,1253.0,1.53,1
3079,1246,1241.0,1.52,1
3080,1285,1283.0,1.57,1
3081,1289,1286.0,1.57,1
3082,1278,1271.0,1.56,1
3083,1287,1291.0,1.57,1
3084,1298,1296.0,1.58,1
3085,1291,1294.0,1.58,1
3086,1293,1289.0,1.58,1
3087,1281,1282.0,1.56,1
3088,1281,1280.0,1.56,1
3089,1281,1280.0,1.56,1
3090,1266,1264.0,1.55,1
3091,1254,1254.0,1.53,1
3092,1247,1243.0,1.52,1
3093,1232,1234.0,1.5,1
3094,1226,1230.0,1.5,1
3095,1231,1232.0,1.5,1
3096,1222,1223.0,1.49,1
3097,1245,1245.0,1.52,1
3098,1235,1242.0,1.51,1
3099,1232,1239.0,1.5,1
3100,1236,1237.0,1.51,1
3101,1239,1242.0,1.51,1
3102,1232,1233.0,1.5,1
3103,1229,1226.0,1.5,1
3104,1207,1207.0,1.47,1
3105,1200,1200.0,1.47,1
3106,1194,1193.0,1.46,1
3107,1178,1179.0,1.44,1
3108,1178,1173.0,1.44,1
3109,1170,1168.0,1.43,1
3110,1170,1171.0,1.43,1
3111,1180,1174.0,1.44,1
3112,1169,1168.0,1.43,1
3113,1157,1155.0,1.41,1
3114,1190,1197.0,1.45,1
3115,1195,1197.0,1.46,1
3116,1199,1200.0,1.46,1
3117,1202,1207.0,1.47,1
3118,1215,1214.0,1.48,1
3119,1205,1206.0,1.47,1
3120,1194,1195.0,1.46,1
3121,1219,1221.0,1.49,1
3122,1221,1219.0,1.49,1
3123,1222,1217.0,1.49,1
3124,1220,1223.0,1.49,1
3125,1216,1215.0,1.48,1
3126,1233,1235.0,1.51,1
3127,1232,1227.0,1.5,1
3128,1209,1209.0,1.48,1
3129,1200,1200.0,1.47,1
3130,1201,1199.0,1.47,1
3131,1200,1200.0,1.47,1
3132,1193,1194.0,1.46,1
3133,1196,1199.0,1.46,1
3134,1200,1199.0,1.47,1
3135,1202,1202.0,1.47,1
3136,1196,1190.0,1.46,1
3137,1197,1198.0,1.46,1
3138,1201,1201.0,1.47,1
3139,1218,1223.0,1.49,1
3140,1255,1259.0,1.53,1
3141,1259,1258.0,1.54,1
3142,1257,1258.0,1.53,1
3143,1232,1232.0,1.5,1
3144,1218,1217.0,1.49,1
3145,1215,1200.0,1.48,1
3146,1202,1200.0,1.47,1
3147,1185,1189.0,1.45,1
3148,1181,1179.0,1.44,1
3149,1170,1174.0,1.43,1
3150,1159,1163.0,1.42,1
3151,1150,1152.0,1.4,1
3152,1146,1143.0,1.4,1
3153,1220,1214.0,1.49,1
3154,1213,1216.0,1.48,1
3155,1242,1243.0,1.52,1
3156,1257,1255.0,1.53,1
3157,1264,1263.0,1.54,1
3158,1301,1299.0,1.59,1
3159,1286,1283.0,1.57,1
3160,1294,1299.0,1.58,1
3161,1296,1296.0,1.58,1
3162,1282,1289.0,1.57,1
3163,1294,1296.0,1.58,1
3164,1293,1296.0,1.58,1
3165,1296,1299.0,1.58,1
3166,1293,1291.0,1.58,1
3167,1296,1300.0,1.58,1
3168,1290,1287.0,1.58,1
3169,1284,1286.0,1.57,1
3170,1343,1334.0,1.64,1
3171,1329,1329.0,1.62,1
3172,1316,1317.0,1.61,1
3173,1296,1296.0,1.58,1
3174,1280,1283.0,1.56,1
3175,1294,1293.0,1.58,1
3176,1302,1301.0,1.59,1
3177,1296,1298.0,1.58,1
3178,1294,1296.0,1.58,1
3179,1292,1295.0,1.58,1
3180,1272,1266.0,1.55,1
3181,1249,1252.0,1.53,1
3182,1242,1241.0,1.52,1
3183,1235,1232.0,1.51,1
3184,1236,1232.0,1.51,1
3185,1230,1230.0,1.5,1
3186,1219,1219.0,1.49,1
3187,1216,1218.0,1.48,1
3188,1249,1246.0,1.53,1
3189,1232,1227.0,1.5,1
3190,1212,1212.0,1.48,1
3191,1210,1210.0,1.48,1
3192,1207,1208.0,1.47,1
3193,1198,1195.0,1.46,1
3194,1187,1191.0,1.45,1
3195,1187,1189.0,1.45,1
3196,1205,1202.0,1.47,1
3197,1225,1219.0,1.5,1
3198,1218,1215.0,1.49,1
3199,1210,1210.0,1.48,1
3200,1200,1202.0,1.47,1
3201,1199,1199.0,1.46,1
3202,1217,1218.0,1.49,1
3203,1219,1227.0,1.49,1
3204,1205,1205.0,1.47,1
3205,1199,1199.0,1.46,1
3206,1220,1221.0,1.49,1
3207,1218,1214.0,1.49,1
3208,1214,1207.0,1.48,1
3209,1203,1202.0,1.47,1
3210,1185,1187.0,1.45,1
3211,1186,1180.0,1.45,1
3212,1191,1186.0,1.45,1
3213,1178,1181.0,1.44,1
3214,1196,1191.0,1.46,1
3215,1200,1200.0,1.47,1
3216,1195,1197.0,1.46,1
3217,1210,1213.0,1.48,1
3218,1219,1225.0,1.49,1
3219,1222,1218.0,1.49,1
3220,1215,1221.0,1.48,1
3221,1223,1226.0,1.49,1
3222,1222,1218.0,1.49,1
3223,1205,1206.0,1.47,1
3224,1200,1200.0,1.47,1
3225,1187,1194.0,1.45,1
3226,1175,1171.0,1.43,1
3227,1165,1167.0,1.42,1
3228,1170,1170.0,1.43,1
3229,1168,1168.0,1.43,1
3230,1159,1165.0,1.42,1
3231,1162,1156.0,1.42,1
3232,1165,1168.0,1.42,1
3233,1205,1202.0,1.47,1
3234,1185,1183.0,1.45,1
3235,1187,1187.0,1.45,1
3236,1190,1190.0,1.45,1
3237,1191,1194.0,1.45,1
3238,1196,1195.0,1.46,1
3239,1185,1184.0,1.45,1
3240,1166,1181.0,1.42,1
3241,1173,1175.0,1.43,1
3242,1169,1168.0,1.43,1
3243,1169,1172.0,1.43,1
3244,1163,1170.0,1.42,1
3245,1157,1154.0,1.41,1
3246,1140,1146.0,1.39,1
3247,1136,1142.0,1.39,1
3248,1169,1168.0,1.43,1
3249,1156,1158.0,1.41,1
3250,1145,1147.0,1.4,1
3251,1157,1165.0,1.41,1
3252,1173,1171.0,1.43,1
3253,1177,1177.0,1.44,1
3254,1171,1170.0,1.43,1
3255,1165,1169.0,1.42,1
3256,1158,1155.0,1.41,1
3257,1155,1152.0,1.41,1
3258,1147,1139.0,1.4,1
3259,1136,1137.0,1.39,1
3260,1133,1127.0,1.38,1
3261,1119,1125.0,1.37,1
3262,1119,1116.0,1.37,1
3263,1146,1154.0,1.4,1
3264,1168,1168.0,1.43,1
3265,1163,1168.0,1.42,1
3266,1165,1163.0,1.42,1
3267,1158,1163.0,1.41,1
3268,1161,1155.0,1.42,1
3269,1143,1143.0,1.4,1
3270,1141,1141.0,1.39,1
3271,1136,1138.0,1.39,1
3272,1136,1136.0,1.39,1
3273,1114,1107.0,1.36,1
3274,1119,1122.0,1.37,1
3275,1131,1127.0,1.38,1
3276,1145,1149.0,1.4,1
3277,1153,1155.0,1.41,1
3278,1152,1152.0,1.41,1
3279,1145,1143.0,1.4,1
3280,1136,1135.0,1.39,1
3281,1127,1130.0,1.38,1
3282,1136,1140.0,1.39,1
3283,1162,1159.0,1.42,1
3284,1193,1193.0,1.46,1
3285,1199,1194.0,1.46,1
3286,1188,1191.0,1.45,1
3287,1181,1178.0,1.44,1
3288,1163,1163.0,1.42,1
3289,1148,1147.0,1.4,1
3290,1143,1141.0,1.4,1
3291,1139,1139.0,1.39,1
3292,1146,1148.0,1.4,1
3293,1144,1147.0,1.4,1
3294,1139,1137.0,1.39,1
3295,1140,1136.0,1.39,1
3296,1115,1115.0,1.36,1
3297,1113,1115.0,1.36,1
3298,1127,1135.0,1.38,1
3299,1135,1133.0,1.39,1
3300,1126,1132.0,1.37,1
3301,1119,1120.0,1.37,1
3302,1110,1109.0,1.36,1
3303,1098,1098.0,1.34,1
3304,1095,1094.0,1.34,1
3305,1103,1097.0,1.35,1
3306,1099,1103.0,1.34,1
3307,1095,1098.0,1.34,1
3308,1103,1104.0,1.35,1
3309,1118,1117.0,1.37,1
3310,1106,1105.0,1.35,1
3311,1104,1101.0,1.35,1
3312,1092,1094.0,1.33,1
3313,1099,1100.0,1.34,1
3314,1110,1108.0,1.36,1
3315,1105,1109.0,1.35,1
3316,1103,1104.0,1.35,1
3317,1101,1104.0,1.34,1
3318,1099,1097.0,1.34,1
3319,1083,1078.0,1.32,1
3320,1079,1077.0,1.32,1
3321,1073,1073.0,1.31,1
3322,1072,1072.0,1.31,1
3323,1107,1118.0,1.35,1
3324,1139,1136.0,1.39,1
3325,1137,1136.0,1.39,1
3326,1136,1138.0,1.39,1
3327,1123,1126.0,1.37,1
3328,1122,1119.0,1.37,1
3329,1114,1110.0,1.36,1
3330,1111,1110.0,1.36,1
3331,1115,1114.0,1.36,1
3332,1122,1116.0,1.37,1
3333,1133,1136.0,1.38,1
3334,1136,1128.0,1.39,1
3335,1122,1123.0,1.37,1
3336,1122,1132.0,1.37,1
3337,1147,1139.0,1.4,1
3338,1147,1149.0,1.4,1
3339,1145,1147.0,1.4,1
3340,1136,1136.0,1.39,1
3341,1131,1130.0,1.38,1
3342,1121,1123.0,1.37,1
3343,1118,1115.0,1.37,1
3344,1120,1115.0,1.37,1
3345,1110,1109.0,1.36,1
3346,1100,1101.0,1.34,1
3347,1095,1093.0,1.34,1
3348,1093,1087.0,1.33,1
3349,1072,1071.0,1.31,1
3350,1065,1069.0,1.3,1
3351,1072,1072.0,1.31,1
3352,1065,1066.0,1.3,1
3353,1059,1058.0,1.29,1
3354,1059,1056.0,1.29,1
3355,1072,1072.0,1.31,1
3356,1058,1059.0,1.29,1
3357,1054,1054.0,1.29,1
3358,1063,1063.0,1.3,1
3359,1070,1070.0,1.31,1
3360,1067,1071.0,1.3,1
3361,1072,1072.0,1.31,1
3362,1063,1061.0,1.3,1
3363,1057,1057.0,1.29,1
3364,1069,1072.0,1.31,1
3365,1087,1092.0,1.33,1
3366,1083,1079.0,1.32,1
3367,1072,1075.0,1.31,1
3368,1072,1069.0,1.31,1
3369,1072,1072.0,1.31,1
3370,1072,1072.0,1.31,1
3371,1071,1069.0,1.31,1
3372,1045,1042.0,1.28,1
3373,1043,1040.0,1.27,1
3374,1043,1054.0,1.27,1
3375,1081,1083.0,1.32,1
3376,1089,1088.0,1.33,1
3377,1094,1088.0,1.34,1
3378,1082,1081.0,1.32,1
3379,1069,1065.0,1.31,1
3380,1061,1058.0,1.3,1
3381,1066,1066.0,1.3,1
3382,1065,1060.0,1.3,1
3383,1058,1054.0,1.29,1
3384,1065,1059.0,1.3,1
3385,1046,1047.0,1.28,1
3386,1045,1049.0,1.28,1
3387,1029,1031.0,1.26,1
3388,1030,1023.0,1.26,1
3389,1020,1015.0,1.25,1
3390,1014,1015.0,1.24,1
3391,1010,1008.0,1.23,1
3392,1010,1008.0,1.23,1
3393,1008,1008.0,1.23,1
3394,1006,1008.0,1.23,1
3395,984,978.0,1.2,1
3396,991,987.0,1.21,1
3397,977,981.0,1.19,1
3398,982,975.0,1.2,1
3399,988,978.0,1.21,1
3400,973,977.0,1.19,1
3401,971,971.0,1.19,1
3402,976,982.0,1.19,1
3403,970,971.0,1.18,1
3404,966,965.0,1.18,1
3405,983,992.0,1.2,1
3406,986,987.0,1.2,1
3407,976,983.0,1.19,1
3408,977,978.0,1.19,1
3409,974,980.0,1.19,1
3410,986,992.0,1.2,1
3411,995,997.0,1.21,1
3412,976,982.0,1.19,1
3413,976,979.0,1.19,1
3414,973,976.0,1.19,1
3415,972,972.0,1.19,1
3416,965,965.0,1.18,1
3417,965,960.0,1.18,1
3418,977,976.0,1.19,1
3419,976,976.0,1.19,1
3420,976,979.0,1.19,1
3421,960,963.0,1.17,1
3422,959,951.0,1.17,1
3423,953,956.0,1.16,1
3424,961,947.0,1.17,1
3425,958,957.0,1.17,1
3426,957,953.0,1.17,1
3427,950,944.0,1.16,1
3428,947,945.0,1.16,1
3429,946,942.0,1.16,1
3430,947,947.0,1.16,1
3431,941,944.0,1.15,1
3432,944,944.0,1.15,1
3433,926,944.0,1.13,1
3434,944,944.0,1.15,1
3435,943,965.0,1.15,1
3436,960,939.0,1.17,1
3437,934,937.0,1.14,1
3438,942,943.0,1.15,1
3439,929,931.0,1.13,1
3440,925,926.0,1.13,1
3441,927,924.0,1.13,1
3442,928,926.0,1.13,1
3443,929,931.0,1.13,1
3444,926,925.0,1.13,1
3445,915,916.0,1.12,1
3446,911,916.0,1.11,1
3447,910,913.0,1.11,1
3448,917,912.0,1.12,1
3449,911,909.0,1.11,1
3450,896,884.0,1.09,1
3451,892,903.0,1.09,1
3452,902,892.0,1.1,1
3453,903,908.0,1.1,1
3454,915,917.0,1.12,1
3455,914,912.0,1.12,1
3456,912,913.0,1.11,1
3457,889,887.0,1.09,1
3458,887,887.0,1.08,1
3459,921,911.0,1.12,1
3460,925,922.0,1.13,1
3461,922,913.0,1.13,1
3462,911,914.0,1.11,1
3463,912,912.0,1.11,1
3464,918,912.0,1.12,1
3465,909,910.0,1.11,1
3466,911,910.0,1.11,1
3467,911,909.0,1.11,1
3468,905,910.0,1.11,1
3469,910,917.0,1.11,1
3470,919,912.0,1.12,1
3471,912,912.0,1.11,1
3472,967,969.0,1.18,1
3473,992,992.0,1.21,1
3474,995,992.0,1.21,1
3475,990,991.0,1.21,1
3476,983,986.0,1.2,1
3477,999,1008.0,1.22,1
3478,1009,1011.0,1.23,1
3479,994,995.0,1.21,1
3480,990,994.0,1.21,1
3481,990,983.0,1.21,1
3482,976,976.0,1.19,1
3483,961,962.0,1.17,1
3484,958,977.0,1.17,1
3485,963,963.0,1.18,1
3486,991,990.0,1.21,1
3487,1011,1008.0,1.23,1
3488,1030,1022.0,1.26,1
3489,1023,1031.0,1.25,1
3490,1069,1072.0,1.31,1
3491,1056,1044.0,1.29,1
3492,1063,1046.0,1.3,1
3493,1074,1072.0,1.31,1
3494,1065,1063.0,1.3,1
3495,1070,1066.0,1.31,1
3496,1068,1069.0,1.3,1
3497,1066,1059.0,1.3,1
3498,1047,1049.0,1.28,1
3499,1036,1041.0,1.26,1
3500,1030,1030.0,1.26,1
3501,1022,1021.0,1.25,1
3502,1029,1040.0,1.26,1
3503,1015,1030.0,1.24,1
3504,1014,1009.0,1.24,1
3505,1003,1003.0,1.22,1
3506,989,983.0,1.21,1
3507,999,998.0,1.22,1
3508,1013,1009.0,1.24,1
3509,1009,1014.0,1.23,1
3510,1011,1011.0,1.23,1
3511,1002,1003.0,1.22,1
3512,994,997.0,1.21,1
3513,995,995.0,1.21,1
3514,983,983.0,1.2,1
3515,976,976.0,1.19,1
3516,976,978.0,1.19,1
3517,976,976.0,1.19,1
3518,976,974.0,1.19,1
3519,983,976.0,1.2,1
3520,979,987.0,1.2,1
3521,1019,988.0,1.24,1
3522,976,976.0,1.19,1
3523,965,962.0,1.18,1
3524,955,949.0,1.17,1
3525,949,953.0,1.16,1
3526,953,949.0,1.16,1
3527,947,944.0,1.16,1
3528,945,931.0,1.15,1
3529,942,939.0,1.15,1
3530,934,931.0,1.14,1
3531,942,947.0,1.15,1
3532,914,918.0,1.12,1
3533,919,915.0,1.12,1
3534,912,912.0,1.11,1
3535,910,911.0,1.11,1
3536,905,904.0,1.11,1
3537,902,902.0,1.1,1
3538,899,903.0,1.1,1
3539,907,909.0,1.11,1
3540,927,922.0,1.13,1
3541,927,922.0,1.13,1
3542,950,959.0,1.16,1
3543,976,976.0,1.19,1
3544,990,991.0,1.21,1
3545,993,995.0,1.21,1
3546,992,988.0,1.21,1
3547,979,980.0,1.2,1
3548,976,977.0,1.19,1
3549,961,959.0,1.17,1
3550,965,964.0,1.18,1
3551,961,971.0,1.17,1
3552,970,970.0,1.18,1
3553,976,977.0,1.19,1
3554,1015,1014.0,1.24,1
3555,1038,1040.0,1.27,1
3556,1040,1040.0,1.27,1
3557,1050,1042.0,1.28,1
3558,1018,1018.0,1.24,1
3559,1055,1056.0,1.29,1
3560,1060,1067.0,1.29,1
3561,1046,1046.0,1.28,1
3562,1042,1046.0,1.27,1
3563,1043,1041.0,1.27,1
3564,1037,1061.0,1.27,1
3565,1037,1030.0,1.27,1
3566,1037,1033.0,1.27,1
3567,1033,1031.0,1.26,1
3568,1022,1022.0,1.25,1
3569,1013,1015.0,1.24,1
3570,1008,1008.0,1.23,1
3571,1008,1016.0,1.23,1
3572,1002,1004.0,1.22,1
3573,983,983.0,1.2,1
3574,978,976.0,1.19,1
3575,976,973.0,1.19,1
3576,981,976.0,1.2,1
3577,979,976.0,1.2,1
3578,976,973.0,1.19,1
3579,976,974.0,1.19,1
3580,976,975.0,1.19,1
3581,971,970.0,1.19,1
3582,955,953.0,1.17,1
3583,942,947.0,1.15,1
3584,939,945.0,1.15,1
3585,962,960.0,1.17,1
3586,976,976.0,1.19,1
3587,974,975.0,1.19,1
3588,966,966.0,1.18,1
3589,961,962.0,1.17,1
3590,946,942.0,1.16,1
3591,934,935.0,1.14,1
3592,939,942.0,1.15,1
3593,954,946.0,1.16,1
3594,965,959.0,1.18,1
3595,960,963.0,1.17,1
3596,959,974.0,1.17,1
3597,961,960.0,1.17,1
3598,955,957.0,1.17,1
3599,954,951.0,1.16,1
3600,934,939.0,1.14,1
3601,940,938.0,1.15,1
3602,935,936.0,1.14,1
3603,932,933.0,1.14,1
3604,934,936.0,1.14,1
3605,950,951.0,1.16,1
3606,982,983.0,1.2,1
3607,1005,1002.0,1.23,1
3608,995,992.0,1.21,1
3609,1023,1034.0,1.25,1
3610,1062,1065.0,1.3,1
3611,1061,1066.0,1.3,1
3612,1059,1057.0,1.29,1
3613,1052,1043.0,1.28,1
3614,1045,1052.0,1.28,1
3615,1029,1029.0,1.26,1
3616,1013,1008.0,1.24,1
3617,1008,1008.0,1.23,1
3618,997,995.0,1.22,1
3619,989,995.0,1.21,1
3620,985,976.0,1.2,1
3621,978,987.0,1.19,1
3622,990,990.0,1.21,1
3623,1005,998.0,1.23,1
3624,976,975.0,1.19,1
3625,972,972.0,1.19,1
3626,971,971.0,1.19,1
3627,969,970.0,1.18,1
3628,960,961.0,1.17,1
3629,957,960.0,1.17,1
3630,962,962.0,1.17,1
3631,960,957.0,1.17,1
3632,976,976.0,1.19,1
3633,971,976.0,1.19,1
3634,983,986.0,1.2,1
3635,1008,1021.0,1.23,1
3636,993,995.0,1.21,1
3637,1001,998.0,1.22,1
3638,1010,1011.0,1.23,1
3639,1009,1011.0,1.23,1
3640,1017,1021.0,1.24,1
3641,1023,1023.0,1.25,1
3642,1016,1021.0,1.24,1
3643,1034,1032.0,1.26,1
3644,1021,1021.0,1.25,1
3645,1013,1014.0,1.24,1
3646,1009,1008.0,1.23,1
3647,1017,1010.0,1.24,1
3648,1005,1002.0,1.23,1
3649,995,995.0,1.21,1
3650,993,996.0,1.21,1
3651,998,994.0,1.22,1
3652,1002,995.0,1.22,1
3653,1004,1003.0,1.23,1
3654,1015,1017.0,1.24,1
3655,1009,1008.0,1.23,1
3656,1007,1001.0,1.23,1
3657,1003,1003.0,1.22,1
3658,991,997.0,1.21,1
3659,987,979.0,1.21,1
3660,990,990.0,1.21,1
3661,987,985.0,1.21,1
3662,983,970.0,1.2,1
3663,996,994.0,1.22,1
3664,996,994.0,1.22,1
3665,1007,1006.0,1.23,1
3666,999,1003.0,1.22,1
3667,997,994.0,1.22,1
3668,982,983.0,1.2,1
3669,993,989.0,1.21,1
3670,1009,1008.0,1.23,1
3671,1017,1018.0,1.24,1
3672,1022,1020.0,1.25,1
3673,1031,1031.0,1.26,1
3674,1055,1071.0,1.29,1
3675,1101,1099.0,1.34,1
3676,1125,1127.0,1.37,1
3677,1122,1119.0,1.37,1
3678,1117,1124.0,1.36,1
3679,1115,1115.0,1.36,1
3680,1108,1106.0,1.35,1
3681,1092,1090.0,1.33,1
3682,1087,1087.0,1.33,1
3683,1078,1081.0,1.32,1
3684,1072,1072.0,1.31,1
3685,1072,1070.0,1.31,1
3686,1089,1088.0,1.33,1
3687,1088,1089.0,1.33,1
3688,1083,1079.0,1.32,1
3689,1051,1057.0,1.28,1
3690,1063,1067.0,1.3,1
3691,1072,1072.0,1.31,1
3692,1059,1073.0,1.29,1
3693,1071,1071.0,1.31,1
3694,1061,1061.0,1.3,1
3695,1054,1053.0,1.29,1
3696,1029,1022.0,1.26,1
3697,1008,1014.0,1.23,1
3698,1008,1008.0,1.23,1
3699,1006,1005.0,1.23,1
3700,940,938.0,1.15,1
3701,946,945.0,1.16,1
3702,949,943.0,1.16,1
3703,947,940.0,1.16,1
3704,942,943.0,1.15,1
3705,942,943.0,1.15,1
3706,934,947.0,1.14,1
3707,931,927.0,1.14,1
3708,921,922.0,1.12,1
3709,926,911.0,1.13,1
3710,912,914.0,1.11,1
3711,918,928.0,1.12,1
3712,925,925.0,1.13,1
3713,926,926.0,1.13,1
3714,933,940.0,1.14,1
3715,944,933.0,1.15,1
3716,944,943.0,1.15,1
3717,938,937.0,1.15,1
3718,937,935.0,1.14,1
3719,933,933.0,1.14,1
3720,929,927.0,1.13,1
3721,923,917.0,1.13,1
3722,926,926.0,1.13,1
3723,932,932.0,1.14,1
3724,937,933.0,1.14,1
3725,928,930.0,1.13,1
3726,916,922.0,1.12,1
3727,923,925.0,1.13,1
3728,922,915.0,1.13,1
3729,919,917.0,1.12,1
3730,919,921.0,1.12,1
3731,917,919.0,1.12,1
3732,921,919.0,1.12,1
3733,913,915.0,1.11,1
3734,920,922.0,1.12,1
3735,927,930.0,1.13,1
3736,926,921.0,1.13,1
3737,917,925.0,1.12,1
3738,921,923.0,1.12,1
3739,919,925.0,1.12,1
3740,917,917.0,1.12,1
3741,919,924.0,1.12,1
3742,923,925.0,1.13,1
3743,914,926.0,1.12,1
3744,917,916.0,1.12,1
3745,944,946.0,1.15,1
3746,943,944.0,1.15,1
3747,956,957.0,1.17,1
3748,954,956.0,1.16,1
3749,946,949.0,1.16,1
3750,945,944.0,1.15,1
3751,941,935.0,1.15,1
3752,912,912.0,1.11,1
3753,912,912.0,1.11,1
3754,910,911.0,1.11,1
3755,912,912.0,1.11,1
3756,920,921.0,1.12,1
3757,922,919.0,1.13,1
3758,930,925.0,1.14,1
3759,923,922.0,1.13,1
3760,912,911.0,1.11,1
3761,912,913.0,1.11,1
3762,926,933.0,1.13,1
3763,944,946.0,1.15,1
3764,943,944.0,1.15,1
3765,944,941.0,1.15,1
3766,939,939.0,1.15,1
3767,932,937.0,1.14,1
3768,941,940.0,1.15,1
3769,927,921.0,1.13,1
3770,915,914.0,1.12,1
3771,916,915.0,1.12,1
3772,922,920.0,1.13,1
3773,923,924.0,1.13,1
3774,922,924.0,1.13,1
3775,923,917.0,1.13,1
3776,915,916.0,1.12,1
3777,911,912.0,1.11,1
3778,912,912.0,1.11,1
3779,919,912.0,1.12,1
3780,912,911.0,1.11,1
3781,909,910.0,1.11,1
3782,901,903.0,1.1,1
3783,912,909.0,1.11,1
3784,903,905.0,1.1,1
3785,902,901.0,1.1,1
3786,902,899.0,1.1,1
3787,877,881.0,1.07,1
3788,880,878.0,1.07,1
3789,879,880.0,1.07,1
3790,880,880.0,1.07,1
3791,883,880.0,1.08,1
3792,882,881.0,1.08,1
3793,886,883.0,1.08,1
3794,881,883.0,1.08,1
3795,875,877.0,1.07,1
3796,862,863.0,1.05,1
3797,866,867.0,1.06,1
3798,870,860.0,1.06,1
3799,880,877.0,1.07,1
3800,880,880.0,1.07,1
3801,894,896.0,1.09,1
3802,912,914.0,1.11,1
3803,913,913.0,1.11,1
3804,910,912.0,1.11,1
3805,912,915.0,1.11,1
3806,917,925.0,1.12,1
3807,916,918.0,1.12,1
3808,919,913.0,1.12,1
3809,918,923.0,1.12,1
3810,912,919.0,1.11,1
3811,912,909.0,1.11,1
3812,908,910.0,1.11,1
3813,907,906.0,1.11,1
3814,891,897.0,1.09,1
3815,892,893.0,1.09,1
3816,897,887.0,1.1,1
3817,896,897.0,1.09,1
3818,897,899.0,1.1,1
3819,903,905.0,1.1,1
3820,894,896.0,1.09,1
3821,892,891.0,1.09,1
3822,873,872.0,1.07,1
3823,874,874.0,1.07,1
3824,880,880.0,1.07,1
3825,891,880.0,1.09,1
3826,885,890.0,1.08,1
3827,892,889.0,1.09,1
3828,885,887.0,1.08,1
3829,891,890.0,1.09,1
3830,890,886.0,1.09,1
3831,874,878.0,1.07,1
3832,879,877.0,1.07,1
3833,882,880.0,1.08,1
3834,881,880.0,1.08,1
3835,891,895.0,1.09,1
3836,892,883.0,1.09,1
3837,887,884.0,1.08,1
3838,889,886.0,1.09,1
3839,874,874.0,1.07,1
3840,896,898.0,1.09,1
3841,912,915.0,1.11,1
3842,912,912.0,1.11,1
3843,909,909.0,1.11,1
3844,912,912.0,1.11,1
3845,911,912.0,1.11,1
3846,912,912.0,1.11,1
3847,912,912.0,1.11,1
3848,906,905.0,1.11,1
3849,895,896.0,1.09,1
3850,890,907.0,1.09,1
3851,909,902.0,1.11,1
3852,910,912.0,1.11,1
3853,932,937.0,1.14,1
3854,935,941.0,1.14,1
3855,937,944.0,1.14,1
3856,932,942.0,1.14,1
3857,912,916.0,1.11,1
3858,928,925.0,1.13,1
3859,921,919.0,1.12,1
3860,927,911.0,1.13,1
3861,933,935.0,1.14,1
3862,934,935.0,1.14,1
3863,960,938.0,1.17,1
3864,933,931.0,1.14,1
3865,944,927.0,1.15,1
3866,917,914.0,1.12,1
3867,917,912.0,1.12,1
3868,925,925.0,1.13,1
3869,919,917.0,1.12,1
3870,918,925.0,1.12,1
3871,913,917.0,1.11,1
3872,918,929.0,1.12,1
3873,944,944.0,1.15,1
3874,944,942.0,1.15,1
3875,983,993.0,1.2,1
3876,1019,1019.0,1.24,1
3877,1015,1018.0,1.24,1
3878,1014,1029.0,1.24,1
3879,1021,1019.0,1.25,1
3880,1013,1019.0,1.24,1
3881,1014,1023.0,1.24,1
3882,1019,1032.0,1.24,1
3883,997,993.0,1.22,1
3884,1009,1019.0,1.23,1
3885,1013,1012.0,1.24,1
3886,1013,1012.0,1.24,1
3887,1022,1027.0,1.25,1
3888,1030,1032.0,1.26,1
3889,1031,1031.0,1.26,1
3890,1029,1037.0,1.26,1
3891,1023,1020.0,1.25,1
3892,1038,1035.0,1.27,1
3893,1038,1039.0,1.27,1
3894,1055,1056.0,1.29,1
3895,1053,1053.0,1.29,1
3896,1045,1053.0,1.28,1
3897,1041,1045.0,1.27,1
3898,1029,1020.0,1.26,1
3899,1018,1008.0,1.24,1
3900,1010,1011.0,1.23,1
3901,1013,1037.0,1.24,1
3902,1013,1009.0,1.24,1
3903,1019,1012.0,1.24,1
3904,1014,1012.0,1.24,1
3905,1008,1008.0,1.23,1
3906,1008,1001.0,1.23,1
3907,992,989.0,1.21,1
3908,988,987.0,1.21,1
3909,989,986.0,1.21,1
3910,987,987.0,1.21,1
3911,997,1003.0,1.22,1
3912,1020,1023.0,1.25,1
3913,1019,1021.0,1.24,1
3914,1010,1009.0,1.23,1
3915,1040,1039.0,1.27,1
3916,1037,1041.0,1.27,1
3917,1047,1046.0,1.28,1
3918,1047,1047.0,1.28,1
3919,1071,1077.0,1.31,1
3920,1088,1087.0,1.33,1
3921,1085,1089.0,1.32,1
3922,1069,1067.0,1.31,1
3923,1054,1044.0,1.29,1
3924,1058,1061.0,1.29,1
3925,1059,1059.0,1.29,1
3926,1065,1053.0,1.3,1
3927,1060,1059.0,1.29,1
3928,1055,1043.0,1.29,1
3929,1034,1034.0,1.26,1
3930,1033,1034.0,1.26,1
3931,1052,1052.0,1.28,1
3932,1071,1075.0,1.31,1
3933,1071,1065.0,1.31,1
3934,1066,1068.0,1.3,1
3935,1071,1070.0,1.31,1
3936,1065,1067.0,1.3,1
3937,1053,1052.0,1.29,1
3938,1048,1046.0,1.28,1
3939,1040,1050.0,1.27,1
3940,1073,1077.0,1.31,1
3941,1082,1076.0,1.32,1
3942,1083,1083.0,1.32,1
3943,1104,1104.0,1.35,1
3944,1095,1094.0,1.34,1
3945,1089,1091.0,1.33,1
3946,1094,1092.0,1.34,1
3947,1127,1129.0,1.38,1
3948,1142,1139.0,1.39,1
3949,1153,1152.0,1.41,1
3950,1150,1151.0,1.4,1
3951,1140,1137.0,1.39,1
3952,1104,1110.0,1.35,1
3953,1133,1113.0,1.38,1
3954,1116,1119.0,1.36,1
3955,1123,1125.0,1.37,1
3956,1120,1118.0,1.37,1
3957,1114,1114.0,1.36,1
3958,1106,1106.0,1.35,1
3959,1088,1092.0,1.33,1
3960,1085,1087.0,1.32,1
3961,1077,1078.0,1.32,1
3962,1069,1070.0,1.31,1
3963,1065,1070.0,1.3,1
3964,1072,1075.0,1.31,1
3965,1074,1072.0,1.31,1
3966,1081,1082.0,1.32,1
3967,1083,1081.0,1.32,1
3968,1072,1066.0,1.31,1
3969,1072,1076.0,1.31,1
3970,1073,1075.0,1.31,1
3971,1070,1072.0,1.31,1
3972,1088,1086.0,1.33,1
3973,1079,1083.0,1.32,1
3974,1073,1075.0,1.31,1
3975,1067,1062.0,1.3,1
3976,1056,1051.0,1.29,1
3977,1049,1052.0,1.28,1
3978,1045,1043.0,1.28,1
3979,1042,1050.0,1.27,1
3980,1040,1051.0,1.27,1
3981,1049,1051.0,1.28,1
3982,1046,1042.0,1.28,1
3983,1043,1040.0,1.27,1
3984,1046,1045.0,1.28,1
3985,1045,1046.0,1.28,1
3986,1040,1046.0,1.27,1
3987,1044,1041.0,1.27,1
3988,1044,1045.0,1.27,1
3989,1038,1033.0,1.27,1
3990,1013,1015.0,1.24,1
3991,1002,1008.0,1.22,1
3992,1008,1008.0,1.23,1
3993,1003,1001.0,1.22,1
3994,1006,1008.0,1.23,1
3995,1005,1007.0,1.23,1
3996,1002,1008.0,1.22,1
3997,999,1003.0,1.22,1
3998,983,980.0,1.2,1
3999,967,971.0,1.18,1
