AnalogValue,Density,Amplitude
1108,1107,1.35
1104,1104,1.35
1095,1094,1.34
1081,1078,1.32
1077,1072,1.32
1057,1070,1.29
1104,1105,1.35
1098,1089,1.34
1087,1088,1.33
1078,1075,1.32
1071,1072,1.31
1070,1070,1.31
1061,1056,1.3
1040,1040,1.27
1039,1040,1.27
1040,1039,1.27
1059,1060,1.29
1050,1054,1.28
1045,1051,1.28
1033,1037,1.26
1029,1034,1.26
1033,1035,1.26
1019,1020,1.24
1013,1019,1.24
1015,1021,1.24
1012,1019,1.24
1007,1005,1.23
996,1001,1.22
1003,999,1.22
999,1000,1.22
995,993,1.21
975,986,1.19
992,987,1.21
989,991,1.21
987,985,1.21
979,979,1.2
976,976,1.19
961,958,1.17
960,961,1.17
976,977,1.19
973,1007,1.19
968,971,1.18
967,976,1.18
960,962,1.17
969,981,1.18
969,976,1.18
975,975,1.19
976,975,1.19
973,971,1.19
972,967,1.19
967,946,1.18
960,961,1.17
948,954,1.16
949,950,1.16
944,943,1.15
923,929,1.13
929,927,1.13
922,925,1.13
910,928,1.11
919,925,1.12
916,917,1.12
919,918,1.12
912,914,1.11
912,917,1.11
902,906,1.1
893,899,1.09
898,891,1.1
897,905,1.1
902,902,1.1
913,896,1.11
899,901,1.1
930,926,1.14
926,927,1.13
915,915,1.12
916,912,1.12
902,903,1.1
910,907,1.11
898,900,1.1
891,892,1.09
880,889,1.07
897,882,1.1
874,871,1.07
867,869,1.06
896,890,1.09
880,887,1.07
883,881,1.08
876,879,1.07
866,874,1.06
874,864,1.07
859,859,1.05
843,843,1.03
831,830,1.01
826,830,1.01
821,827,1.0
835,831,1.02
849,850,1.04
853,859,1.04
849,848,1.04
891,884,1.09
883,889,1.08
880,880,1.07
879,878,1.07
873,869,1.07
870,871,1.06
860,863,1.05
861,864,1.05
861,866,1.05
865,871,1.06
879,881,1.07
878,880,1.07
876,878,1.07
874,869,1.07
869,868,1.06
869,872,1.06
906,909,1.11
899,899,1.1
891,891,1.09
881,880,1.08
877,877,1.07
877,869,1.07
873,869,1.07
874,864,1.07
874,871,1.07
873,874,1.07
879,875,1.07
901,903,1.1
903,918,1.1
915,917,1.12
916,914,1.12
934,943,1.14
963,963,1.18
960,960,1.17
955,958,1.17
949,935,1.16
934,934,1.14
941,937,1.15
943,935,1.15
932,939,1.14
945,958,1.15
944,942,1.15
938,940,1.15
938,931,1.15
940,930,1.15
937,937,1.14
949,947,1.16
981,983,1.2
992,997,1.21
1023,1018,1.25
1021,1017,1.25
1022,1034,1.25
1014,1014,1.24
1002,1001,1.22
994,994,1.21
994,995,1.21
989,982,1.21
993,990,1.21
982,973,1.2
979,976,1.2
977,974,1.19
975,975,1.19
981,976,1.2
974,976,1.19
968,960,1.18
955,959,1.17
950,951,1.16
942,944,1.15
943,939,1.15
944,945,1.15
943,946,1.15
934,934,1.14
942,942,1.15
935,932,1.14
944,944,1.15
938,935,1.15
949,944,1.16
948,951,1.16
944,946,1.15
944,946,1.15
946,946,1.16
951,957,1.16
953,948,1.16
942,944,1.15
944,944,1.15
947,947,1.16
944,945,1.15
940,942,1.15
937,937,1.14
944,943,1.15
939,932,1.15
935,933,1.14
937,935,1.14
934,931,1.14
916,931,1.12
932,927,1.14
945,949,1.15
943,945,1.15
944,947,1.15
941,936,1.15
943,940,1.15
942,939,1.15
934,931,1.14
922,919,1.13
915,912,1.12
906,906,1.11
912,912,1.11
909,910,1.11
905,901,1.11
894,895,1.09
886,884,1.08
877,877,1.07
875,880,1.07
885,889,1.08
881,883,1.08
882,885,1.08
859,879,1.05
870,877,1.06
859,861,1.05
866,858,1.06
855,863,1.04
885,891,1.08
885,884,1.08
897,896,1.1
913,918,1.11
946,951,1.16
960,961,1.17
956,953,1.17
948,947,1.16
944,943,1.15
929,930,1.13
934,934,1.14
921,919,1.12
911,910,1.11
897,901,1.1
894,895,1.09
881,886,1.08
881,880,1.08
879,869,1.07
868,867,1.06
859,861,1.05
850,853,1.04
848,848,1.04
864,866,1.05
864,859,1.05
859,859,1.05
860,863,1.05
864,864,1.05
865,862,1.06
881,880,1.08
874,873,1.07
874,875,1.07
865,869,1.06
868,861,1.06
866,867,1.06
858,857,1.05
851,848,1.04
877,876,1.07
886,891,1.08
891,890,1.09
883,885,1.08
892,890,1.09
889,883,1.09
891,888,1.09
880,880,1.07
880,878,1.07
899,887,1.1
907,910,1.11
899,906,1.1
898,898,1.1
903,903,1.1
944,945,1.15
944,944,1.15
945,947,1.15
946,945,1.16
941,943,1.15
946,945,1.16
944,947,1.15
944,944,1.15
945,943,1.15
943,944,1.15
947,949,1.16
943,943,1.15
951,953,1.16
971,975,1.19
970,964,1.18
960,960,1.17
949,949,1.16
938,934,1.15
941,937,1.15
929,928,1.13
926,928,1.13
924,919,1.13
915,912,1.12
902,898,1.1
901,895,1.1
899,905,1.1
912,911,1.11
901,907,1.1
896,898,1.09
903,901,1.1
897,896,1.1
891,896,1.09
901,898,1.1
890,890,1.09
881,882,1.08
876,880,1.07
877,879,1.07
867,866,1.06
873,870,1.07
876,880,1.07
910,909,1.11
890,883,1.09
881,880,1.08
878,879,1.07
871,869,1.06
874,870,1.07
875,868,1.07
874,874,1.07
946,954,1.16
959,960,1.17
959,959,1.17
955,950,1.17
968,969,1.18
972,974,1.19
962,965,1.17
960,962,1.17
944,942,1.15
947,949,1.16
941,940,1.15
953,942,1.16
953,947,1.16
960,958,1.17
949,950,1.16
944,941,1.15
925,930,1.13
921,915,1.12
931,933,1.14
964,962,1.18
985,980,1.2
983,978,1.2
977,975,1.19
977,981,1.19
992,991,1.21
993,989,1.21
1017,1021,1.24
1042,1043,1.27
1040,1040,1.27
1056,1061,1.29
1050,1051,1.28
1040,1040,1.27
1039,1040,1.27
1077,1083,1.32
1086,1087,1.33
1066,1065,1.3
1072,1071,1.31
1063,1061,1.3
1083,1088,1.32
1092,1092,1.33
1086,1083,1.33
1078,1084,1.32
1081,1085,1.32
1075,1075,1.31
1074,1074,1.31
1056,1055,1.29
1059,1059,1.29
1050,1048,1.28
1051,1054,1.28
1088,1085,1.33
1087,1088,1.33
1072,1077,1.31
1085,1090,1.32
1094,1097,1.34
1104,1104,1.35
1137,1152,1.39
1137,1137,1.39
1125,1122,1.37
1117,1119,1.36
1133,1134,1.38
1147,1145,1.4
1136,1136,1.39
1136,1136,1.39
1128,1133,1.38
1143,1145,1.4
1122,1119,1.37
1102,1104,1.35
1089,1091,1.33
1099,1102,1.34
1117,1118,1.36
1105,1108,1.35
1119,1111,1.37
1168,1170,1.43
1171,1171,1.43
1161,1157,1.42
1136,1136,1.39
1136,1136,1.39
1193,1193,1.46
1209,1215,1.48
1278,1276,1.56
1303,1303,1.59
1310,1308,1.6
1319,1319,1.61
1315,1313,1.61
1300,1296,1.59
1274,1261,1.56
1263,1257,1.54
1245,1245,1.52
1216,1219,1.48
1203,1200,1.47
1211,1217,1.48
1234,1238,1.51
1242,1244,1.52
1243,1241,1.52
1235,1223,1.51
1210,1214,1.48
1200,1205,1.47
1200,1197,1.47
1235,1235,1.51
1225,1227,1.5
1211,1205,1.48
1207,1212,1.47
1229,1230,1.5
1230,1232,1.5
1238,1239,1.51
1248,1246,1.52
1240,1241,1.51
1226,1228,1.5
1221,1222,1.49
1234,1241,1.51
1263,1264,1.54
1229,1229,1.5
1218,1216,1.49
1205,1201,1.47
1199,1196,1.46
1173,1180,1.43
1168,1166,1.43
1149,1151,1.4
1124,1126,1.37
1123,1123,1.37
1119,1120,1.37
1115,1115,1.36
1116,1121,1.36
1109,1113,1.35
1104,1104,1.35
1168,1172,1.43
1204,1206,1.47
1182,1178,1.44
1175,1170,1.43
1155,1168,1.41
1151,1154,1.41
1139,1150,1.39
1136,1136,1.39
1136,1136,1.39
1119,1121,1.37
1110,1107,1.36
1106,1105,1.35
1104,1103,1.35
1084,1083,1.32
1072,1066,1.31
1079,1079,1.32
1104,1104,1.35
1089,1088,1.33
1079,1077,1.32
1071,1068,1.31
1051,1052,1.28
1041,1040,1.27
1030,1031,1.26
1011,1016,1.23
1008,1008,1.23
1022,1023,1.25
1056,1058,1.29
1053,1046,1.29
1044,1040,1.27
1031,1034,1.26
1023,1022,1.25
1043,1046,1.27
1056,1059,1.29
1039,1038,1.27
1021,1030,1.25
1014,1015,1.24
1003,997,1.22
992,1022,1.21
997,997,1.22
989,989,1.21
979,976,1.2
966,970,1.18
983,980,1.2
994,993,1.21
1006,1000,1.23
997,997,1.22
1040,1038,1.27
1071,1071,1.31
1052,1050,1.28
1052,1056,1.28
1047,1041,1.28
1055,1055,1.29
1054,1056,1.29
1043,1042,1.27
1017,1015,1.24
1018,1013,1.24
1008,1008,1.23
1008,1009,1.23
1022,1022,1.25
1018,1017,1.24
1012,1009,1.24
1033,1035,1.26
1070,1070,1.31
1089,1089,1.33
1105,1104,1.35
1104,1104,1.35
1115,1115,1.36
1098,1095,1.34
1098,1091,1.34
1095,1099,1.34
1099,1093,1.34
1088,1088,1.33
1074,1072,1.31
1069,1063,1.31
1059,1057,1.29
1056,1053,1.29
1056,1054,1.29
1068,1071,1.3
1072,1062,1.31
1075,1079,1.31
1057,1058,1.29
1059,1056,1.29
1053,1056,1.29
1047,1051,1.28
1050,1050,1.28
1065,1067,1.3
1062,1059,1.3
1042,1050,1.27
1040,1041,1.27
1054,1054,1.29
1075,1072,1.31
1071,1070,1.31
1075,1073,1.31
1104,1103,1.35
1127,1124,1.38
1113,1109,1.36
1101,1098,1.34
1085,1088,1.32
1104,1104,1.35
1102,1104,1.35
1088,1084,1.33
1072,1075,1.31
1057,1059,1.29
1085,1079,1.32
1072,1072,1.31
1066,1066,1.3
1056,1058,1.29
1107,1107,1.35
1126,1125,1.37
1118,1123,1.37
1093,1105,1.33
1095,1097,1.34
1104,1110,1.35
1111,1109,1.36
1087,1086,1.33
1072,1072,1.31
1061,1057,1.3
1033,1030,1.26
1062,1061,1.3
1073,1078,1.31
1075,1072,1.31
1072,1071,1.31
1092,1094,1.33
1111,1106,1.36
1101,1098,1.34
1129,1131,1.38
1139,1141,1.39
1129,1135,1.38
1157,1157,1.41
1187,1194,1.45
1177,1168,1.44
1166,1168,1.42
1167,1171,1.42
1163,1161,1.42
1193,1185,1.46
1200,1202,1.47
1187,1190,1.45
1177,1184,1.44
1222,1231,1.49
1264,1264,1.54
1247,1249,1.52
1241,1244,1.52
1237,1242,1.51
1219,1221,1.49
1207,1203,1.47
1194,1195,1.46
1187,1188,1.45
1168,1168,1.43
1170,1168,1.43
1210,1200,1.48
1214,1216,1.48
1203,1204,1.47
1186,1190,1.45
1187,1199,1.45
1244,1248,1.52
1280,1277,1.56
1290,1286,1.58
1286,1285,1.57
1286,1287,1.57
1271,1267,1.55
1249,1254,1.53
1247,1244,1.52
1232,1230,1.5
1256,1258,1.53
1249,1248,1.53
1232,1234,1.5
1243,1238,1.52
1228,1232,1.5
1217,1219,1.49
1218,1216,1.49
1269,1270,1.55
1265,1261,1.54
1247,1250,1.52
1223,1225,1.49
1216,1216,1.48
1235,1230,1.51
1215,1215,1.48
1198,1200,1.46
1189,1189,1.45
1199,1200,1.46
1225,1226,1.5
1200,1210,1.47
1203,1200,1.47
1180,1175,1.44
1179,1179,1.44
1197,1199,1.46
1199,1199,1.46
1201,1200,1.47
1191,1189,1.45
1184,1179,1.45
1197,1199,1.46
1191,1189,1.45
1195,1197,1.46
1168,1166,1.43
1177,1173,1.44
1211,1205,1.48
1200,1197,1.47
1189,1187,1.45
1185,1178,1.45
1175,1178,1.43
1178,1184,1.44
1197,1195,1.46
1182,1178,1.44
1173,1175,1.43
1169,1169,1.43
1171,1168,1.43
1157,1158,1.41
1150,1146,1.4
1146,1141,1.4
1132,1134,1.38
1188,1192,1.45
1188,1185,1.45
1175,1181,1.43
1168,1169,1.43
1160,1155,1.42
1191,1197,1.45
1225,1222,1.5
1213,1215,1.48
1199,1200,1.46
1181,1184,1.44
1180,1179,1.44
1168,1163,1.43
1155,1152,1.41
1130,1129,1.38
1155,1157,1.41
1168,1168,1.43
1216,1213,1.48
1207,1206,1.47
1190,1193,1.45
1203,1201,1.47
1210,1200,1.48
1247,1251,1.52
1278,1275,1.56
1261,1261,1.54
1264,1263,1.54
1248,1247,1.52
1226,1223,1.5
1215,1211,1.48
1200,1200,1.47
1181,1180,1.44
1183,1183,1.44
1179,1178,1.44
1191,1191,1.45
1179,1178,1.44
1197,1196,1.46
1200,1203,1.47
1264,1274,1.54
1278,1280,1.56
1264,1265,1.54
1265,1268,1.54
1284,1277,1.57
1280,1278,1.56
1283,1284,1.57
1255,1259,1.53
1247,1246,1.52
1219,1219,1.49
1239,1238,1.51
1232,1231,1.5
1222,1222,1.49
1213,1216,1.48
1249,1257,1.53
1289,1293,1.57
1288,1283,1.57
1294,1289,1.58
1295,1295,1.58
1289,1281,1.57
1264,1263,1.54
1248,1248,1.52
1233,1235,1.51
1217,1213,1.49
1222,1222,1.49
1269,1271,1.55
1325,1322,1.62
1307,1307,1.6
1301,1295,1.59
1290,1285,1.58
1343,1344,1.64
1354,1349,1.65
1348,1350,1.65
1326,1327,1.62
1310,1312,1.6
1298,1297,1.58
1275,1278,1.56
1285,1281,1.57
1277,1271,1.56
1264,1264,1.54
1307,1307,1.6
1339,1340,1.63
1335,1337,1.63
1319,1323,1.61
1360,1363,1.66
1424,1425,1.74
1451,1456,1.77
1437,1441,1.75
1427,1425,1.74
1408,1409,1.72
1387,1386,1.69
1388,1385,1.69
1368,1366,1.67
1353,1351,1.65
1349,1346,1.65
1330,1328,1.62
1366,1360,1.67
1367,1363,1.67
1359,1360,1.66
1357,1355,1.66
1405,1409,1.72
1440,1440,1.76
1458,1456,1.78
1433,1431,1.75
1414,1418,1.73
1405,1406,1.72
1378,1378,1.68
1360,1360,1.66
1350,1344,1.65
1330,1329,1.62
1357,1359,1.66
1409,1409,1.72
1437,1435,1.75
1417,1419,1.73
1402,1424,1.71
1441,1441,1.76
1489,1490,1.82
1510,1518,1.84
1520,1520,1.86
1507,1514,1.84
1507,1509,1.84
1490,1489,1.82
1491,1490,1.82
1462,1458,1.79
1455,1452,1.78
1424,1424,1.74
1497,1499,1.83
1523,1521,1.86
1509,1506,1.84
1519,1520,1.85
1522,1521,1.86
1535,1535,1.87
1564,1558,1.91
1569,1566,1.92
1553,1552,1.9
1562,1561,1.91
1535,1525,1.87
1518,1518,1.85
1503,1504,1.84
1495,1494,1.83
1467,1467,1.79
1467,1469,1.79
1494,1499,1.82
1508,1504,1.84
1491,1490,1.82
1479,1474,1.81
1520,1520,1.86
1558,1552,1.9
1553,1551,1.9
1518,1520,1.85
1520,1515,1.86
1504,1503,1.84
1459,1469,1.78
1455,1453,1.78
1453,1453,1.77
1431,1437,1.75
1420,1424,1.73
1442,1456,1.76
1439,1440,1.76
1422,1420,1.74
1408,1407,1.72
1397,1406,1.71
1455,1455,1.78
1450,1450,1.77
1426,1429,1.74
1415,1423,1.73
1399,1401,1.71
1420,1397,1.73
1385,1391,1.69
1355,1348,1.65
1326,1334,1.62
1319,1318,1.61
1360,1360,1.66
1363,1363,1.66
1376,1354,1.68
1334,1342,1.63
1402,1402,1.71
1455,1453,1.78
1456,1456,1.78
1410,1411,1.72
1399,1395,1.71
1381,1383,1.69
1357,1362,1.66
1362,1358,1.66
1355,1355,1.65
1342,1357,1.64
1308,1306,1.6
1296,1303,1.58
1329,1331,1.62
1327,1327,1.62
1333,1329,1.63
1329,1328,1.62
1413,1409,1.73
1443,1442,1.76
1423,1439,1.74
1422,1422,1.74
1394,1395,1.7
1379,1382,1.68
1374,1373,1.68
1347,1357,1.64
1348,1350,1.65
1333,1335,1.63
1326,1328,1.62
1319,1323,1.61
1315,1313,1.61
1295,1298,1.58
1277,1277,1.56
1291,1291,1.58
1319,1328,1.61
1424,1417,1.74
1427,1427,1.74
1453,1446,1.77
1426,1423,1.74
1417,1405,1.73
1401,1404,1.71
1389,1386,1.7
1369,1365,1.67
1385,1382,1.69
1419,1424,1.73
1414,1417,1.73
1392,1392,1.7
1385,1379,1.69
1411,1414,1.72
1432,1434,1.75
1457,1479,1.78
1435,1432,1.75
1434,1432,1.75
1424,1423,1.74
1417,1417,1.73
1392,1394,1.7
1381,1388,1.69
1367,1366,1.67
1394,1392,1.7
1424,1408,1.74
1434,1435,1.75
1407,1409,1.72
1405,1406,1.72
1421,1422,1.74
1457,1458,1.78
1495,1491,1.83
1473,1472,1.8
1455,1456,1.78
1437,1433,1.75
1421,1413,1.74
1418,1418,1.73
1379,1389,1.68
1381,1381,1.69
1371,1371,1.67
1435,1437,1.75
1429,1437,1.74
1429,1427,1.74
1422,1424,1.74
1455,1459,1.78
1482,1485,1.81
1501,1499,1.83
1484,1473,1.81
1468,1469,1.79
1458,1460,1.78
1437,1435,1.75
1427,1427,1.74
1422,1425,1.74
1417,1413,1.73
1385,1389,1.69
1407,1408,1.72
1455,1456,1.78
1425,1453,1.74
1439,1433,1.76
1419,1417,1.73
1470,1473,1.79
1520,1520,1.86
1520,1519,1.86
1500,1495,1.83
1471,1471,1.8
1489,1493,1.82
1483,1482,1.81
1456,1455,1.78
1440,1442,1.76
1424,1431,1.74
1411,1395,1.72
1466,1464,1.79
1475,1473,1.8
1466,1466,1.79
1447,1443,1.77
1437,1429,1.75
1453,1456,1.77
1488,1490,1.82
1478,1476,1.8
1469,1467,1.79
1446,1442,1.77
1429,1427,1.74
1413,1408,1.73
1397,1403,1.71
1371,1376,1.67
1332,1349,1.63
1349,1347,1.65
1392,1371,1.7
1359,1358,1.66
1345,1347,1.64
1376,1366,1.68
1411,1406,1.72
1439,1436,1.76
1410,1410,1.72
1392,1392,1.7
1362,1392,1.66
1363,1361,1.66
1343,1374,1.64
1344,1340,1.64
1333,1333,1.63
1322,1341,1.61
1360,1363,1.66
1385,1387,1.69
1386,1384,1.69
1363,1368,1.66
1377,1370,1.68
1442,1430,1.76
1483,1493,1.81
1500,1509,1.83
1505,1503,1.84
1523,1531,1.86
1527,1522,1.86
1521,1519,1.86
1504,1506,1.84
1488,1485,1.82
1471,1465,1.8
1441,1446,1.76
1487,1457,1.82
1488,1469,1.82
1456,1456,1.78
1461,1466,1.78
1483,1484,1.81
1507,1514,1.84
1531,1541,1.87
1509,1507,1.84
1494,1497,1.82
1488,1485,1.82
1473,1469,1.8
1454,1456,1.78
1439,1439,1.76
1403,1398,1.71
1381,1385,1.69
1381,1380,1.69
1392,1386,1.7
1374,1369,1.68
1358,1357,1.66
1357,1358,1.66
1372,1373,1.68
1398,1398,1.71
1404,1397,1.71
1379,1378,1.68
1366,1370,1.67
1394,1388,1.7
1362,1376,1.66
1216,1216,1.48
1245,1247,1.52
1242,1241,1.52
1263,1260,1.54
1267,1270,1.55
1307,1301,1.6
1328,1328,1.62
1328,1328,1.62
1355,1346,1.65
1355,1350,1.65
1354,1357,1.65
1344,1341,1.64
1330,1329,1.62
1317,1322,1.61
1296,1301,1.58
1290,1291,1.58
1294,1291,1.58
1281,1286,1.56
1281,1283,1.56
1281,1282,1.56
1274,1278,1.56
1296,1298,1.58
1296,1297,1.58
1284,1282,1.57
1302,1302,1.59
1318,1311,1.61
1299,1306,1.59
1293,1293,1.58
1283,1285,1.57
1270,1271,1.55
1248,1263,1.52
1233,1232,1.51
1228,1222,1.5
1223,1221,1.49
1223,1224,1.49
1217,1215,1.49
1219,1215,1.49
1230,1228,1.5
1253,1247,1.53
1245,1250,1.52
1264,1264,1.54
1255,1253,1.53
1267,1270,1.55
1282,1289,1.57
1284,1290,1.57
1275,1274,1.56
1253,1254,1.53
1233,1233,1.51
1241,1234,1.52
1225,1222,1.5
1289,1295,1.57
1290,1292,1.58
1289,1289,1.57
1284,1286,1.57
1300,1299,1.59
1294,1297,1.58
1296,1298,1.58
1296,1297,1.58
1293,1296,1.58
1286,1285,1.57
1264,1264,1.54
1264,1263,1.54
1287,1264,1.57
1273,1275,1.55
1268,1266,1.55
1257,1264,1.53
1249,1254,1.53
1251,1250,1.53
1234,1235,1.51
1221,1216,1.49
1215,1214,1.48
1211,1213,1.48
1226,1226,1.5
1221,1216,1.49
1205,1203,1.47
1193,1194,1.46
1194,1196,1.46
1182,1181,1.44
1173,1173,1.43
1166,1164,1.42
1175,1178,1.43
1243,1246,1.52
1243,1243,1.52
1226,1228,1.5
1193,1191,1.46
1198,1194,1.46
1197,1199,1.46
1189,1185,1.45
1175,1178,1.43
1168,1169,1.43
1179,1181,1.44
1162,1162,1.42
1152,1151,1.41
1143,1138,1.4
1136,1138,1.39
1137,1135,1.39
1132,1135,1.38
1114,1117,1.36
1116,1120,1.36
1145,1147,1.4
1147,1149,1.4
1136,1139,1.39
1153,1131,1.41
1120,1121,1.37
1115,1115,1.36
1106,1107,1.35
1105,1105,1.35
1091,1095,1.33
1097,1093,1.34
1094,1100,1.34
1104,1104,1.35
1153,1143,1.41
1152,1150,1.41
1179,1180,1.44
1185,1185,1.45
1246,1254,1.52
1264,1264,1.54
1254,1259,1.53
1247,1243,1.52
1232,1233,1.5
1229,1229,1.5
1210,1217,1.48
1201,1200,1.47
1178,1179,1.44
1179,1179,1.44
1167,1168,1.42
1157,1156,1.41
1148,1147,1.4
1159,1155,1.42
1169,1168,1.43
1173,1172,1.43
1179,1178,1.44
1195,1198,1.46
1206,1191,1.47
1199,1202,1.46
1175,1186,1.43
1181,1178,1.44
1179,1177,1.44
1167,1163,1.42
1168,1168,1.43
1173,1209,1.43
1194,1193,1.46
1205,1206,1.47
1199,1214,1.46
1198,1205,1.46
1189,1196,1.45
1171,1175,1.43
1167,1167,1.42
1146,1155,1.4
1148,1151,1.4
1137,1136,1.39
1129,1126,1.38
1121,1135,1.37
1122,1121,1.37
1111,1114,1.36
1109,1104,1.35
1121,1119,1.37
1108,1102,1.35
1111,1106,1.36
1098,1102,1.34
1130,1121,1.38
1114,1117,1.36
1115,1114,1.36
1112,1109,1.36
1111,1102,1.36
1100,1100,1.34
1098,1100,1.34
1094,1091,1.34
1107,1107,1.35
1115,1110,1.36
1104,1101,1.35
1095,1097,1.34
1090,1089,1.33
1088,1085,1.33
1103,1088,1.35
1098,1097,1.34
1072,1072,1.31
1056,1066,1.29
1059,1058,1.29
1050,1051,1.28
1040,1038,1.27
1043,1042,1.27
1040,1040,1.27
1011,1018,1.23
1030,1029,1.26
1039,1042,1.27
1023,1013,1.25
1034,1023,1.26
1018,1022,1.24
1015,1013,1.24
1005,1004,1.23
997,997,1.22
989,992,1.21
982,980,1.2
992,987,1.21
976,983,1.19
1008,1008,1.23
1008,1005,1.23
1010,1013,1.23
993,992,1.21
993,991,1.21
1011,1015,1.23
1001,1003,1.22
992,1007,1.21
1019,1021,1.24
1040,1061,1.27
1039,1038,1.27
1045,1040,1.28
1040,1040,1.27
1038,1038,1.27
1041,1031,1.27
1031,1031,1.26
1017,1019,1.24
1006,1011,1.23
994,998,1.21
981,976,1.2
981,983,1.2
981,982,1.2
977,979,1.19
993,994,1.21
1004,998,1.23
1015,1015,1.24
1040,1040,1.27
1051,1044,1.28
1041,1040,1.27
1037,1038,1.27
1046,1051,1.28
1121,1129,1.37
1136,1135,1.39
1136,1138,1.39
1150,1142,1.4
1122,1124,1.37
1122,1130,1.37
1136,1142,1.39
1154,1148,1.41
1190,1189,1.45
1217,1222,1.49
1214,1214,1.48
1194,1200,1.46
1184,1186,1.45
1189,1187,1.45
1168,1165,1.43
1161,1155,1.42
1150,1147,1.4
1133,1138,1.38
1135,1135,1.39
1149,1122,1.4
1200,1200,1.47
1187,1181,1.45
1214,1214,1.48
1239,1237,1.51
1253,1259,1.53
1248,1248,1.52
1230,1232,1.5
1232,1232,1.5
1217,1215,1.49
1211,1210,1.48
1195,1197,1.46
1186,1184,1.45
1183,1183,1.44
1168,1170,1.43
1154,1149,1.41
1152,1158,1.41
1167,1157,1.42
1137,1136,1.39
1154,1149,1.41
1145,1142,1.4
1136,1136,1.39
1143,1136,1.4
1127,1127,1.38
1107,1104,1.35
1111,1111,1.36
1108,1106,1.35
1092,1104,1.33
1081,1075,1.32
1117,1121,1.36
1123,1123,1.37
1095,1091,1.34
1082,1086,1.32
1090,1078,1.33
1079,1072,1.32
1075,1072,1.31
1092,1091,1.33
1103,1104,1.35
1089,1085,1.33
1088,1090,1.33
1088,1083,1.33
1071,1072,1.31
1060,1057,1.29
1072,1072,1.31
1056,1053,1.29
1040,1040,1.27
1032,1030,1.26
1029,1030,1.26
1070,1067,1.31
1072,1085,1.31
1103,1097,1.35
1099,1093,1.34
1104,1105,1.35
1105,1105,1.35
1091,1089,1.33
1100,1103,1.34
1100,1099,1.34
1088,1085,1.33
1093,1088,1.33
1097,1098,1.34
1102,1104,1.35
1101,1098,1.34
1091,1091,1.33
1091,1091,1.33
1108,1104,1.35
1129,1127,1.38
1139,1141,1.39
1125,1125,1.37
1123,1118,1.37
1105,1105,1.35
1099,1094,1.34
1088,1090,1.33
1086,1078,1.33
1072,1072,1.31
1052,1057,1.28
1055,1056,1.29
1040,1040,1.27
1011,1019,1.23
1013,1018,1.24
999,1006,1.22
1008,1008,1.23
1008,1008,1.23
1021,1032,1.25
1040,1040,1.27
1023,1029,1.25
1023,1023,1.25
1040,1039,1.27
1038,1031,1.27
1082,1082,1.32
1139,1138,1.39
1168,1163,1.43
1172,1178,1.43
1181,1173,1.44
1156,1170,1.41
1157,1155,1.41
1163,1166,1.42
1217,1216,1.49
1232,1225,1.5
1219,1217,1.49
1200,1200,1.47
1193,1189,1.46
1257,1254,1.53
1243,1247,1.52
1232,1232,1.5
1210,1210,1.48
1201,1199,1.47
1195,1200,1.46
1152,1165,1.41
1168,1162,1.43
1170,1173,1.43
1165,1168,1.42
1155,1149,1.41
1141,1142,1.39
1136,1136,1.39
1111,1105,1.36
1099,1101,1.34
1111,1114,1.36
1152,1152,1.41
1147,1147,1.4
1143,1137,1.4
1126,1131,1.37
1119,1120,1.37
1107,1109,1.35
1094,1091,1.34
1076,1073,1.31
1071,1073,1.31
1075,1066,1.31
1089,1093,1.33
1079,1085,1.32
1072,1072,1.31
1071,1072,1.31
1066,1062,1.3
1061,1057,1.3
1057,1065,1.29
1045,1046,1.28
1041,1042,1.27
1029,1031,1.26
1003,1003,1.22
1008,1005,1.23
997,993,1.22
994,997,1.21
1006,1002,1.23
1030,1029,1.26
1017,1010,1.24
1010,1009,1.23
1039,1040,1.27
1052,1058,1.28
1055,1056,1.29
1057,1057,1.29
1046,1054,1.28
1047,1018,1.28
1075,1073,1.31
1079,1081,1.32
1081,1076,1.32
1072,1069,1.31
1061,1056,1.3
1054,1055,1.29
1053,1055,1.29
1044,1043,1.27
1035,1037,1.26
1029,1029,1.26
1023,1018,1.25
1001,995,1.22
999,1002,1.22
997,999,1.22
986,979,1.2
976,979,1.19
978,978,1.19
986,987,1.2
1005,1006,1.23
999,998,1.22
997,1001,1.22
988,983,1.21
982,986,1.2
994,990,1.21
988,995,1.21
1016,1015,1.24
1029,1033,1.26
1015,1012,1.24
1010,1010,1.23
1006,1008,1.23
993,992,1.21
988,987,1.21
997,1002,1.22
995,992,1.21
985,984,1.2
966,966,1.18
971,976,1.19
971,976,1.19
973,967,1.19
961,962,1.17
956,955,1.17
948,946,1.16
970,975,1.18
1030,1040,1.26
1042,1043,1.27
1047,1045,1.28
1045,1043,1.28
1031,1036,1.26
1017,1020,1.24
1035,1038,1.26
1023,1017,1.25
1015,1019,1.24
1022,1018,1.25
1008,1008,1.23
1023,1021,1.25
1017,1012,1.24
1033,1035,1.26
1072,1063,1.31
1061,1065,1.3
1072,1072,1.31
1069,1068,1.31
1053,1057,1.29
1060,1062,1.29
1055,1056,1.29
1047,1043,1.28
1040,1040,1.27
1033,1030,1.26
1002,1007,1.22
1014,1021,1.24
1031,1030,1.26
1042,1041,1.27
1047,1051,1.28
1075,1074,1.31
1082,1081,1.32
1070,1072,1.31
1072,1078,1.31
1073,1072,1.31
1066,1065,1.3
1062,1059,1.3
1050,1048,1.28
1040,1038,1.27
1035,1034,1.26
1039,1035,1.27
1057,1055,1.29
1103,1104,1.35
1089,1088,1.33
1083,1085,1.32
1089,1097,1.33
1121,1121,1.37
1136,1135,1.39
1137,1139,1.39
1117,1115,1.36
1104,1104,1.35
1103,1103,1.35
1086,1088,1.33
1092,1093,1.33
1085,1083,1.32
1093,1089,1.33
1107,1107,1.35
1102,1103,1.35
1120,1119,1.37
1119,1118,1.37
1159,1166,1.42
1202,1200,1.47
1199,1195,1.46
1189,1191,1.45
1195,1193,1.46
1173,1177,1.43
1168,1168,1.43
1161,1158,1.42
1145,1140,1.4
1135,1133,1.39
1117,1118,1.36
1104,1109,1.35
1104,1102,1.35
1099,1099,1.34
1101,1102,1.34
1088,1087,1.33
1083,1078,1.32
1089,1088,1.33
1087,1088,1.33
1083,1082,1.32
1096,1096,1.34
1103,1102,1.35
1099,1100,1.34
1111,1115,1.36
1109,1106,1.35
1108,1104,1.35
1099,1090,1.34
1089,1088,1.33
1133,1133,1.38
1127,1126,1.38
1117,1119,1.36
1120,1124,1.37
1121,1122,1.37
1119,1127,1.37
1108,1110,1.35
1093,1094,1.33
1098,1098,1.34
1095,1094,1.34
1104,1109,1.35
1104,1102,1.35
1093,1091,1.33
1087,1088,1.33
1106,1104,1.35
1104,1099,1.35
1097,1091,1.34
1084,1086,1.32
1102,1104,1.35
1107,1113,1.35
1098,1095,1.34
1088,1089,1.33
1085,1082,1.32
1074,1073,1.31
1072,1072,1.31
1063,1062,1.3
1056,1053,1.29
1043,1045,1.27
1040,1043,1.27
1075,1077,1.31
1089,1095,1.33
1086,1088,1.33
1089,1088,1.33
1065,1067,1.3
1066,1072,1.3
1081,1079,1.32
1083,1079,1.32
1124,1121,1.37
1143,1149,1.4
1154,1150,1.41
1137,1137,1.39
1131,1133,1.38
1125,1122,1.37
1121,1123,1.37
1136,1126,1.39
1149,1152,1.4
1155,1157,1.41
1142,1140,1.39
1141,1142,1.39
1134,1131,1.38
1119,1120,1.37
1099,1097,1.34
1089,1088,1.33
1072,1072,1.31
1065,1065,1.3
1059,1060,1.29
1052,1050,1.28
1040,1053,1.27
1022,1031,1.25
1033,1021,1.26
1035,1031,1.26
1031,1033,1.26
1033,1031,1.26
1019,1023,1.24
1019,1015,1.24
1008,1008,1.23
1043,1041,1.27
1035,1036,1.26
1021,1020,1.25
1017,1014,1.24
999,1007,1.22
993,990,1.21
986,986,1.2
981,986,1.2
977,979,1.19
970,971,1.18
976,978,1.19
969,976,1.18
971,970,1.19
967,962,1.18
957,957,1.17
955,951,1.17
947,947,1.16
935,935,1.14
914,912,1.12
912,904,1.11
898,906,1.1
897,898,1.1
907,912,1.11
899,899,1.1
897,897,1.1
911,911,1.11
898,903,1.1
895,896,1.09
893,889,1.09
885,879,1.08
880,880,1.07
877,876,1.07
874,870,1.07
862,865,1.05
848,852,1.04
838,842,1.02
836,839,1.02
839,841,1.02
838,836,1.02
843,836,1.03
849,848,1.04
864,869,1.05
900,899,1.1
899,898,1.1
892,892,1.09
887,893,1.08
893,890,1.09
892,887,1.09
882,881,1.08
874,876,1.07
867,867,1.06
862,863,1.05
848,849,1.04
843,842,1.03
841,847,1.03
843,848,1.03
847,846,1.03
848,843,1.04
843,844,1.03
843,835,1.03
827,833,1.01
830,829,1.01
830,829,1.01
827,825,1.01
825,826,1.01
830,829,1.01
823,823,1.0
823,827,1.0
819,818,1.0
821,821,1.0
816,821,1.0
817,816,1.0
815,810,1.0
816,815,1.0
819,817,1.0
816,816,1.0
814,815,0.99
811,815,0.99
816,816,1.0
821,819,1.0
813,814,0.99
848,849,1.04
849,850,1.04
853,849,1.04
873,869,1.07
866,865,1.06
859,864,1.05
848,849,1.04
871,873,1.06
869,874,1.06
868,869,1.06
865,864,1.06
863,858,1.05
862,864,1.05
861,862,1.05
867,867,1.06
849,848,1.04
855,855,1.04
858,861,1.05
853,853,1.04
850,848,1.04
847,849,1.03
837,842,1.02
832,826,1.02
819,816,1.0
809,811,0.99
832,838,1.02
843,843,1.03
834,835,1.02
841,845,1.03
841,835,1.03
838,841,1.02
837,835,1.02
832,832,1.02
823,819,1.0
817,810,1.0
814,816,0.99
816,810,1.0
807,805,0.99
793,791,0.97
789,790,0.96
800,802,0.98
802,790,0.98
809,810,0.99
813,809,0.99
805,795,0.98
799,795,0.98
794,791,0.97
793,793,0.97
793,790,0.97
789,789,0.96
783,782,0.96
782,784,0.95
782,781,0.95
774,771,0.95
774,774,0.95
781,781,0.95
782,779,0.95
769,773,0.94
775,780,0.95
789,792,0.96
786,787,0.96
801,801,0.98
802,801,0.98
791,794,0.97
806,801,0.98
801,801,0.98
800,797,0.98
795,797,0.97
787,785,0.96
776,773,0.95
771,769,0.94
768,766,0.94
775,779,0.95
813,811,0.99
815,813,1.0
810,810,0.99
802,800,0.98
858,862,1.05
852,852,1.04
848,848,1.04
847,845,1.03
845,841,1.03
841,838,1.03
845,848,1.03
865,859,1.06
849,848,1.04
835,834,1.02
836,832,1.02
825,823,1.01
823,826,1.0
829,829,1.01
821,823,1.0
823,827,1.0
816,816,1.0
816,819,1.0
811,813,0.99
819,816,1.0
824,822,1.01
827,830,1.01
822,828,1.0
817,819,1.0
817,815,1.0
810,809,0.99
795,797,0.97
784,785,0.96
783,782,0.96
784,783,0.96
793,797,0.97
802,798,0.98
795,795,0.97
785,783,0.96
784,785,0.96
767,769,0.94
761,758,0.93
757,758,0.92
782,781,0.95
803,805,0.98
799,795,0.98
799,792,0.98
787,788,0.96
786,785,0.96
779,784,0.95
781,779,0.95
785,786,0.96
847,831,1.03
829,829,1.01
821,825,1.0
846,843,1.03
833,832,1.02
825,827,1.01
829,831,1.01
846,848,1.03
843,838,1.03
837,835,1.02
838,834,1.02
833,831,1.02
834,832,1.02
817,823,1.0
817,816,1.0
844,845,1.03
836,838,1.02
832,832,1.02
837,840,1.02
841,843,1.03
835,839,1.02
832,831,1.02
823,826,1.0
823,825,1.0
816,819,1.0
829,829,1.01
841,842,1.03
846,848,1.03
850,853,1.04
848,849,1.04
829,845,1.01
847,841,1.03
839,837,1.02
839,839,1.02
850,848,1.04
846,844,1.03
865,870,1.06
882,883,1.08
879,875,1.07
878,875,1.07
877,875,1.07
873,877,1.07
874,871,1.07
869,867,1.06
866,870,1.06
866,869,1.06
873,868,1.07
870,873,1.06
875,869,1.07
875,874,1.07
883,882,1.08
883,881,1.08
879,880,1.07
875,876,1.07
880,881,1.07
879,880,1.07
901,903,1.1
900,902,1.1
893,893,1.09
880,879,1.07
869,869,1.06
866,864,1.06
857,859,1.05
851,860,1.04
860,862,1.05
853,854,1.04
848,848,1.04
846,839,1.03
852,850,1.04
855,858,1.04
855,854,1.04
857,862,1.05
848,848,1.04
848,847,1.04
846,846,1.03
858,862,1.05
855,857,1.04
846,842,1.03
838,842,1.02
837,835,1.02
829,822,1.01
827,823,1.01
826,825,1.01
818,816,1.0
815,815,1.0
795,789,0.97
794,793,0.97
811,817,0.99
837,838,1.02
835,837,1.02
837,834,1.02
833,837,1.02
846,844,1.03
835,827,1.02
825,820,1.01
816,818,1.0
815,816,1.0
831,833,1.01
851,854,1.04
848,851,1.04
863,865,1.05
871,868,1.06
858,857,1.05
848,848,1.04
850,849,1.04
870,874,1.06
880,881,1.07
915,926,1.12
946,946,1.16
960,960,1.17
969,965,1.18
975,976,1.19
971,970,1.19
963,963,1.18
960,957,1.17
949,949,1.16
943,941,1.15
940,936,1.15
938,938,1.15
937,937,1.14
922,922,1.13
918,912,1.12
912,907,1.11
919,917,1.12
911,912,1.11
903,903,1.1
899,898,1.1
892,896,1.09
893,906,1.09
912,912,1.11
903,907,1.1
922,925,1.13
912,912,1.11
915,923,1.12
942,944,1.15
941,942,1.15
934,932,1.14
928,929,1.13
918,912,1.12
928,929,1.13
960,959,1.17
960,954,1.17
947,946,1.16
947,948,1.16
945,944,1.15
943,941,1.15
944,943,1.15
934,938,1.14
934,930,1.14
925,925,1.13
925,919,1.13
916,919,1.12
917,927,1.12
915,914,1.12
911,910,1.11
890,883,1.09
902,907,1.1
940,944,1.15
944,947,1.15
939,951,1.15
934,937,1.14
938,933,1.15
929,933,1.13
923,919,1.13
915,919,1.12
930,927,1.14
923,923,1.13
918,917,1.12
915,912,1.12
909,909,1.11
902,902,1.1
926,928,1.13
926,929,1.13
915,914,1.12
919,913,1.12
912,915,1.11
913,914,1.11
913,911,1.11
910,909,1.11
906,901,1.11
916,913,1.12
934,929,1.14
932,932,1.14
925,925,1.13
915,916,1.12
912,912,1.11
898,898,1.1
893,896,1.09
894,893,1.09
889,887,1.09
880,880,1.07
875,879,1.07
930,938,1.14
951,960,1.16
971,970,1.19
971,973,1.19
960,974,1.17
971,972,1.19
976,974,1.19
988,989,1.21
995,990,1.21
987,977,1.21
