AnalogValue,Density,Amplitude,Result
396,396,0.48,0
405,407,0.49,0
423,423,0.52,0
413,411,0.5,0
405,402,0.49,0
393,391,0.48,0
385,387,0.47,0
401,404,0.49,0
401,400,0.49,0
439,437,0.54,0
465,468,0.57,0
465,464,0.57,0
471,475,0.58,0
464,455,0.57,0
466,464,0.57,0
453,455,0.55,0
448,449,0.55,0
463,452,0.57,0
445,452,0.54,0
430,422,0.53,0
431,412,0.53,0
400,413,0.49,0
404,409,0.49,0
408,400,0.5,0
400,399,0.49,0
403,385,0.49,0
358,373,0.44,0
358,355,0.44,0
341,347,0.42,0
338,337,0.41,0
331,332,0.4,0
321,320,0.39,0
322,319,0.39,0
321,324,0.39,0
336,346,0.41,0
386,383,0.47,0
400,407,0.49,0
456,463,0.56,0
575,579,0.7,0
595,623,0.73,0
623,615,0.76,0
628,611,0.77,0
615,621,0.75,0
594,596,0.73,0
587,599,0.72,0
579,582,0.71,0
574,576,0.7,0
560,563,0.68,0
543,543,0.66,0
528,521,0.64,0
505,496,0.62,0
495,497,0.6,0
490,494,0.6,0
497,495,0.61,0
496,498,0.61,0
486,487,0.59,0
484,487,0.59,0
483,482,0.59,0
476,464,0.58,0
463,464,0.57,0
464,494,0.57,0
450,449,0.55,0
436,435,0.53,0
431,430,0.53,0
421,413,0.51,0
400,405,0.49,0
394,393,0.48,0
395,400,0.48,0
388,382,0.47,0
373,380,0.46,0
369,368,0.45,0
377,377,0.46,0
385,399,0.47,0
377,372,0.46,0
358,354,0.44,0
366,361,0.45,0
374,371,0.46,0
363,341,0.44,0
352,362,0.43,0
341,345,0.42,0
339,336,0.41,0
322,327,0.39,0
316,318,0.39,0
304,309,0.37,0
309,306,0.38,0
302,303,0.37,0
302,299,0.37,0
297,291,0.36,0
285,287,0.35,0
278,286,0.34,0
271,272,0.33,0
265,257,0.32,0
259,256,0.32,0
260,262,0.32,0
250,256,0.31,0
240,235,0.29,0
240,240,0.29,0
225,227,0.27,0
215,211,0.26,0
208,208,0.25,0
249,246,0.3,0
241,247,0.29,0
243,241,0.3,0
238,238,0.29,0
239,240,0.29,0
234,238,0.29,0
234,231,0.29,0
243,247,0.3,0
238,238,0.29,0
233,229,0.28,0
222,219,0.27,0
208,209,0.25,0
208,203,0.25,0
213,213,0.26,0
213,212,0.26,0
208,206,0.25,0
194,195,0.24,0
185,190,0.23,0
182,181,0.22,0
180,179,0.22,0
179,177,0.22,0
171,171,0.21,0
166,165,0.2,0
174,175,0.21,0
159,165,0.19,0
160,156,0.2,0
154,150,0.19,0
161,173,0.2,0
183,187,0.22,0
182,189,0.22,0
203,208,0.25,0
236,230,0.29,0
224,226,0.27,0
219,219,0.27,0
220,218,0.27,0
226,225,0.28,0
232,223,0.28,0
226,230,0.28,0
219,215,0.27,0
227,234,0.28,0
233,230,0.28,0
214,222,0.26,0
211,215,0.26,0
207,210,0.25,0
202,202,0.25,0
194,194,0.24,0
192,178,0.23,0
181,180,0.22,0
176,176,0.21,0
167,171,0.2,0
173,175,0.21,0
173,167,0.21,0
175,168,0.21,0
179,178,0.22,0
195,196,0.24,0
189,181,0.23,0
192,192,0.23,0
190,179,0.23,0
178,177,0.22,0
172,176,0.21,0
174,172,0.21,0
166,165,0.2,0
164,165,0.2,0
192,193,0.23,0
190,192,0.23,0
219,219,0.27,0
240,240,0.29,0
239,239,0.29,0
256,256,0.31,0
309,311,0.38,0
330,334,0.4,0
368,371,0.45,0
414,406,0.51,0
412,414,0.5,0
416,417,0.51,0
434,433,0.53,0
435,438,0.53,0
432,432,0.53,0
419,417,0.51,0
403,410,0.49,0
404,405,0.49,0
413,400,0.5,0
395,394,0.48,0
382,379,0.47,0
379,371,0.46,0
368,370,0.45,0
341,343,0.42,0
334,336,0.41,0
324,326,0.4,0
324,322,0.4,0
313,310,0.38,0
305,309,0.37,0
300,298,0.37,0
298,295,0.36,0
288,281,0.35,0
281,278,0.34,0
274,265,0.33,0
267,269,0.33,0
266,267,0.32,0
252,256,0.31,0
1195,1194,1.46,0
1197,1198,1.46,0
1200,1211,1.47,0
1264,1265,1.54,0
1264,1264,1.54,0
1251,1255,1.53,0
1266,1274,1.55,0
1274,1279,1.56,0
1278,1271,1.56,0
1271,1268,1.55,0
1255,1261,1.53,0
1254,1250,1.53,0
1262,1267,1.54,0
1298,1300,1.58,0
1291,1285,1.58,0
1283,1279,1.57,0
1277,1271,1.56,0
1271,1274,1.55,0
1283,1286,1.57,0
1293,1291,1.58,0
1265,1263,1.54,0
1264,1264,1.54,0
1264,1263,1.54,0
1258,1256,1.54,0
1251,1250,1.53,0
1234,1239,1.51,0
1232,1231,1.5,0
1222,1217,1.49,0
1216,1218,1.48,0
1203,1204,1.47,0
1197,1200,1.46,0
1195,1197,1.46,0
1205,1206,1.47,0
1230,1232,1.5,0
1239,1241,1.51,0
1232,1232,1.5,0
1237,1235,1.51,0
1231,1235,1.5,0
1222,1228,1.49,0
1216,1215,1.48,0
1207,1203,1.47,0
1200,1200,1.47,0
1189,1188,1.45,0
1198,1195,1.46,0
1187,1188,1.45,0
1193,1197,1.46,0
1217,1215,1.49,0
1216,1217,1.48,0
1233,1232,1.51,0
1223,1228,1.49,0
1216,1215,1.48,0
1215,1210,1.48,0
1200,1200,1.47,0
1186,1188,1.45,0
1182,1207,1.44,0
1171,1182,1.43,0
1167,1165,1.42,0
1154,1152,1.41,0
1152,1152,1.41,0
1149,1148,1.4,0
1151,1143,1.41,0
1146,1140,1.4,0
1136,1137,1.39,0
1147,1151,1.4,0
1161,1157,1.42,0
1139,1136,1.39,0
1118,1121,1.37,0
1120,1117,1.37,0
1117,1113,1.36,0
1106,1104,1.35,0
1101,1103,1.34,0
1102,1097,1.35,0
1086,1078,1.33,0
1086,1082,1.33,0
1085,1086,1.32,0
1086,1088,1.33,0
1073,1077,1.31,0
1074,1073,1.31,0
1083,1087,1.32,0
1103,1097,1.35,0
1081,1082,1.32,0
1074,1072,1.31,0
1070,1072,1.31,0
1069,1071,1.31,0
1069,1061,1.31,0
1067,1065,1.3,0
1062,1061,1.3,0
1057,1053,1.29,0
1049,1053,1.28,0
1051,1049,1.28,0
1041,1044,1.27,0
1040,1023,1.27,0
1031,1030,1.26,0
1041,1040,1.27,0
1049,1049,1.28,0
1083,1082,1.32,0
1072,1072,1.31,0
1077,1083,1.32,0
1088,1090,1.33,0
1087,1086,1.33,0
1081,1076,1.32,0
1072,1072,1.31,0
1068,1061,1.3,0
1057,1053,1.29,0
1062,1061,1.3,0
1063,1061,1.3,0
1050,1047,1.28,0
1042,1048,1.27,0
1043,1046,1.27,0
1058,1051,1.29,0
1042,1054,1.27,0
1035,1035,1.26,0
1040,1039,1.27,0
1034,1031,1.26,0
1035,1030,1.26,0
1019,1019,1.24,0
1008,1008,1.23,0
1014,1010,1.24,0
1005,1003,1.23,0
1004,1001,1.23,0
999,999,1.22,0
994,994,1.21,0
985,991,1.2,0
987,992,1.21,0
979,989,1.2,0
982,982,1.2,0
976,976,1.19,0
966,963,1.18,0
962,973,1.17,0
966,970,1.18,0
962,963,1.17,0
963,961,1.18,0
956,950,1.17,0
954,950,1.16,0
949,953,1.16,0
943,943,1.15,0
937,937,1.14,0
945,944,1.15,0
944,946,1.15,0
950,953,1.16,0
955,959,1.17,0
957,953,1.17,0
955,947,1.17,0
946,951,1.16,0
938,943,1.15,0
928,923,1.13,0
919,918,1.12,0
918,919,1.12,0
918,915,1.12,0
909,911,1.11,0
912,912,1.11,0
905,906,1.11,0
901,902,1.1,0
895,891,1.09,0
910,894,1.11,0
901,902,1.1,0
906,897,1.11,0
917,907,1.12,0
901,905,1.1,0
923,914,1.13,0
912,913,1.11,0
911,912,1.11,0
895,892,1.09,0
883,882,1.08,0
883,883,1.08,0
884,881,1.08,0
890,890,1.09,0
885,885,1.08,0
886,890,1.08,0
890,887,1.09,0
889,894,1.09,0
911,910,1.11,0
907,906,1.11,0
910,905,1.11,0
922,919,1.13,0
923,928,1.13,0
933,929,1.14,0
944,924,1.15,0
915,924,1.12,0
913,912,1.11,0
909,901,1.11,0
900,901,1.1,0
900,897,1.1,0
906,899,1.11,0
908,905,1.11,0
901,907,1.1,0
896,899,1.09,0
907,899,1.11,0
887,883,1.08,0
887,891,1.08,0
880,887,1.07,0
887,884,1.08,0
885,881,1.08,0
893,867,1.09,0
875,877,1.07,0
874,874,1.07,0
864,866,1.05,0
882,880,1.08,0
882,880,1.08,0
880,880,1.07,0
881,880,1.08,0
881,880,1.08,0
879,880,1.07,0
885,880,1.08,0
877,880,1.07,0
874,880,1.07,0
863,861,1.05,0
873,869,1.07,0
865,865,1.06,0
862,866,1.05,0
866,874,1.06,0
869,876,1.06,0
876,871,1.07,0
870,867,1.06,0
869,870,1.06,0
848,849,1.04,0
843,848,1.03,0
842,847,1.03,0
843,843,1.03,0
842,842,1.03,0
843,841,1.03,0
837,848,1.02,0
837,838,1.02,0
826,830,1.01,0
819,823,1,0
839,817,1.02,0
819,816,1,0
821,826,1,0
820,823,1,0
818,821,1,0
838,833,1.02,0
816,829,1,0
829,827,1.01,0
826,829,1.01,0
827,826,1.01,0
830,823,1.01,0
823,826,1,0
823,816,1,0
819,819,1,0
822,818,1,0
816,817,1,0
806,807,0.98,0
805,810,0.98,0
810,805,0.99,0
809,810,0.99,0
803,803,0.98,0
806,811,0.98,0
801,799,0.98,0
799,794,0.98,0
797,797,0.97,0
787,786,0.96,0
786,784,0.96,0
786,786,0.96,0
784,784,0.96,0
785,784,0.96,0
784,796,0.96,0
784,784,0.96,0
789,803,0.96,0
786,784,0.96,0
777,778,0.95,0
771,775,0.94,0
784,786,0.96,0
793,789,0.97,0
799,791,0.98,0
797,793,0.97,0
792,791,0.97,0
784,797,0.96,0
785,784,0.96,0
784,798,0.96,0
791,795,0.97,0
784,784,0.96,0
791,779,0.97,0
793,796,0.97,0
802,803,0.98,0
799,801,0.98,0
802,802,0.98,0
800,797,0.98,0
802,800,0.98,0
800,799,0.98,0
793,793,0.97,0
794,789,0.97,0
805,798,0.98,0
805,804,0.98,0
798,798,0.97,0
809,811,0.99,0
798,799,0.97,0
799,799,0.98,0
798,793,0.97,0
803,793,0.98,0
805,801,0.98,0
810,813,0.99,0
808,813,0.99,0
814,806,0.99,0
815,808,1,0
804,802,0.98,0
797,798,0.97,0
795,788,0.97,0
793,793,0.97,0
789,795,0.96,0
806,802,0.98,0
805,806,0.98,0
817,816,1,0
822,837,1,0
815,813,1,0
815,813,1,0
816,814,1,0
816,818,1,0
816,816,1,0
807,816,0.99,0
809,814,0.99,0
811,797,0.99,0
821,823,1,0
818,816,1,0
816,814,1,0
845,833,1.03,0
833,832,1.02,0
845,846,1.03,0
847,846,1.03,0
845,843,1.03,0
841,841,1.03,0
835,835,1.02,0
830,826,1.01,0
830,829,1.01,0
827,829,1.01,0
819,821,1,0
821,826,1,0
827,820,1.01,0
839,846,1.02,0
868,864,1.06,0
855,850,1.04,0
861,856,1.05,0
862,864,1.05,0
863,864,1.05,0
864,868,1.05,0
864,851,1.05,0
883,861,1.08,0
837,858,1.02,0
838,850,1.02,0
837,846,1.02,0
833,830,1.02,0
831,827,1.01,0
831,826,1.01,0
846,844,1.03,0
843,846,1.03,0
847,844,1.03,0
844,850,1.03,0
848,847,1.04,0
833,831,1.02,0
836,832,1.02,0
843,845,1.03,0
848,846,1.04,0
847,845,1.03,0
845,846,1.03,0
839,831,1.02,0
835,842,1.02,0
832,826,1.02,0
819,818,1,0
816,816,1,0
815,815,1,0
817,819,1,0
823,825,1,0
818,821,1,0
823,826,1,0
833,826,1.02,0
816,816,1,0
816,816,1,0
812,811,0.99,0
827,813,1.01,0
807,809,0.99,0
805,814,0.98,0
793,798,0.97,0
813,801,0.99,0
799,799,0.98,0
782,783,0.95,0
781,779,0.95,0
784,784,0.96,0
783,781,0.96,0
783,784,0.96,0
807,799,0.99,0
818,817,1,0
816,818,1,0
814,816,0.99,0
803,799,0.98,0
797,795,0.97,0
802,800,0.98,0
801,800,0.98,0
803,801,0.98,0
800,799,0.98,0
802,786,0.98,0
800,801,0.98,0
817,817,1,0
819,818,1,0
816,817,1,0
820,821,1,0
831,828,1.01,0
838,831,1.02,0
837,834,1.02,0
832,832,1.02,0
832,830,1.02,0
831,832,1.01,0
839,837,1.02,0
832,825,1.02,0
837,839,1.02,0
839,829,1.02,0
842,845,1.03,0
853,854,1.04,0
848,849,1.04,0
845,847,1.03,0
839,844,1.02,0
829,823,1.01,0
826,825,1.01,0
827,828,1.01,0
825,828,1.01,0
825,826,1.01,0
831,828,1.01,0
829,830,1.01,0
833,831,1.02,0
848,842,1.04,0
840,832,1.03,0
837,844,1.02,0
847,832,1.03,0
847,832,1.03,0
848,849,1.04,0
847,848,1.03,0
847,833,1.03,0
842,846,1.03,0
848,837,1.04,0
831,819,1.01,0
829,827,1.01,0
834,837,1.02,0
869,861,1.06,0
855,870,1.04,0
869,877,1.06,0
884,887,1.08,0
890,891,1.09,0
879,880,1.07,0
877,877,1.07,0
876,880,1.07,0
879,879,1.07,0
874,874,1.07,0
874,877,1.07,0
877,879,1.07,0
870,876,1.06,0
867,870,1.06,0
854,852,1.04,0
861,861,1.05,0
856,859,1.05,0
856,852,1.05,0
857,857,1.05,0
860,859,1.05,0
852,861,1.04,0
860,853,1.05,0
853,854,1.04,0
866,870,1.06,0
862,864,1.05,0
853,859,1.04,0
855,850,1.04,0
852,855,1.04,0
848,853,1.04,0
849,849,1.04,0
850,853,1.04,0
846,847,1.03,0
849,855,1.04,0
855,853,1.04,0
862,863,1.05,0
855,857,1.04,0
853,854,1.04,0
886,882,1.08,0
892,877,1.09,0
886,890,1.08,0
885,882,1.08,0
882,881,1.08,0
877,880,1.07,0
882,880,1.08,0
878,879,1.07,0
870,878,1.06,0
869,874,1.06,0
867,867,1.06,0
885,880,1.08,0
871,871,1.06,0
865,865,1.06,0
869,872,1.06,0
885,886,1.08,0
883,886,1.08,0
881,880,1.08,0
887,889,1.08,0
891,884,1.09,0
880,880,1.07,0
865,867,1.06,0
877,877,1.07,0
882,881,1.08,0
880,884,1.07,0
883,879,1.08,0
886,880,1.08,0
882,882,1.08,0
879,877,1.07,0
871,880,1.06,0
865,869,1.06,0
867,866,1.06,0
877,877,1.07,0
875,870,1.07,0
870,877,1.06,0
870,876,1.06,0
875,879,1.07,0
871,870,1.06,0
874,869,1.07,0
849,851,1.04,0
851,848,1.04,0
848,851,1.04,0
850,848,1.04,0
848,849,1.04,0
849,833,1.04,0
850,849,1.04,0
848,848,1.04,0
835,832,1.02,0
838,837,1.02,0
837,837,1.02,0
838,832,1.02,0
844,842,1.03,0
848,846,1.04,0
839,846,1.02,0
845,848,1.03,0
847,839,1.03,0
830,823,1.01,0
834,836,1.02,0
835,836,1.02,0
842,836,1.03,0
841,843,1.03,0
839,837,1.02,0
834,834,1.02,0
831,829,1.01,0
822,818,1,0
816,815,1,0
809,814,0.99,0
810,806,0.99,0
807,804,0.99,0
807,806,0.99,0
816,821,1,0
816,814,1,0
815,816,1,0
811,802,0.99,0
815,816,1,0
827,826,1.01,0
831,831,1.01,0
845,843,1.03,0
853,855,1.04,0
849,848,1.04,0
845,846,1.03,0
844,843,1.03,0
847,847,1.03,0
851,848,1.04,0
848,848,1.04,0
852,851,1.04,0
870,869,1.06,0
870,875,1.06,0
877,875,1.07,0
878,880,1.07,0
896,891,1.09,0
895,891,1.09,0
890,890,1.09,0
885,886,1.08,0
886,883,1.08,0
889,886,1.09,0
891,886,1.09,0
885,883,1.08,0
880,880,1.07,0
884,885,1.08,0
877,873,1.07,0
880,870,1.07,0
877,877,1.07,0
883,880,1.08,0
880,880,1.07,0
874,880,1.07,0
880,876,1.07,0
876,871,1.07,0
870,876,1.06,0
871,873,1.06,0
874,880,1.07,0
875,879,1.07,0
879,874,1.07,0
880,875,1.07,0
877,878,1.07,0
882,887,1.08,0
882,885,1.08,0
885,886,1.08,0
898,901,1.1,0
899,898,1.1,0
905,905,1.11,0
911,912,1.11,0
912,913,1.11,0
912,913,1.11,0
912,912,1.11,0
941,939,1.15,0
944,945,1.15,0
944,944,1.15,0
947,949,1.16,0
955,950,1.17,0
954,949,1.16,0
954,952,1.16,0
950,950,1.16,0
950,955,1.16,0
945,945,1.15,0
942,935,1.15,0
922,925,1.13,0
921,918,1.12,0
919,923,1.12,0
915,916,1.12,0
910,912,1.11,0
912,912,1.11,0
911,912,1.11,0
905,911,1.11,0
905,900,1.11,0
898,898,1.1,0
902,899,1.1,0
895,898,1.09,0
901,905,1.1,0
903,901,1.1,0
897,899,1.1,0
889,893,1.09,0
883,890,1.08,0
880,864,1.07,0
880,873,1.07,0
875,871,1.07,0
873,871,1.07,0
870,875,1.06,0
881,890,1.08,0
882,886,1.08,0
884,880,1.08,0
879,880,1.07,0
875,878,1.07,0
866,874,1.06,0
891,898,1.09,0
909,908,1.11,0
902,900,1.1,0
896,896,1.09,0
891,889,1.09,0
902,900,1.1,0
901,912,1.1,0
883,885,1.08,0
881,883,1.08,0
886,884,1.08,0
888,891,1.08,0
895,895,1.09,0
898,894,1.1,0
915,901,1.12,0
907,908,1.11,0
887,893,1.08,0
884,885,1.08,0
880,881,1.07,0
878,880,1.07,0
877,878,1.07,0
874,880,1.07,0
877,871,1.07,0
867,869,1.06,0
859,855,1.05,0
847,840,1.03,0
838,837,1.02,0
835,841,1.02,0
837,844,1.02,0
838,839,1.02,0
845,845,1.03,0
846,850,1.03,0
844,844,1.03,0
834,835,1.02,0
832,826,1.02,0
828,829,1.01,0
834,832,1.02,0
831,838,1.01,0
832,833,1.02,0
837,834,1.02,0
835,838,1.02,0
834,835,1.02,0
829,827,1.01,0
818,817,1,0
818,819,1,0
831,825,1.01,0
822,823,1,0
827,829,1.01,0
827,830,1.01,0
831,822,1.01,0
820,821,1,0
816,819,1,0
807,811,0.99,0
808,806,0.99,0
820,819,1,0
832,827,1.02,0
830,832,1.01,0
834,833,1.02,0
834,832,1.02,0
849,845,1.04,0
835,838,1.02,0
843,839,1.03,0
862,864,1.05,0
883,886,1.08,0
898,899,1.1,0
902,896,1.1,0
905,903,1.11,0
898,906,1.1,0
897,899,1.1,0
891,894,1.09,0
902,902,1.1,0
900,897,1.1,0
898,900,1.1,0
903,905,1.1,0
905,909,1.11,0
906,900,1.11,0
901,907,1.1,0
906,906,1.11,0
897,907,1.1,0
901,897,1.1,0
896,897,1.09,0
894,896,1.09,0
886,896,1.08,0
889,891,1.09,0
892,891,1.09,0
891,895,1.09,0
881,880,1.08,0
880,875,1.07,0
885,893,1.08,0
894,892,1.09,0
885,889,1.08,0
901,898,1.1,0
900,902,1.1,0
895,897,1.09,0
896,893,1.09,0
890,884,1.09,0
874,879,1.07,0
874,870,1.07,0
876,871,1.07,0
880,878,1.07,0
899,893,1.1,0
894,891,1.09,0
889,893,1.09,0
892,896,1.09,0
906,894,1.11,0
898,897,1.1,0
889,896,1.09,0
892,889,1.09,0
893,892,1.09,0
897,897,1.1,0
896,894,1.09,0
886,891,1.08,0
886,883,1.08,0
877,877,1.07,0
869,871,1.06,0
873,875,1.07,0
875,875,1.07,0
885,881,1.08,0
882,885,1.08,0
880,881,1.07,0
883,882,1.08,0
879,879,1.07,0
870,871,1.06,0
878,880,1.07,0
879,880,1.07,0
875,874,1.07,0
879,875,1.07,0
875,878,1.07,0
878,877,1.07,0
875,873,1.07,0
867,867,1.06,0
858,853,1.05,0
850,849,1.04,0
865,867,1.06,0
865,867,1.06,0
865,870,1.06,0
880,867,1.07,0
865,867,1.06,0
858,863,1.05,0
857,864,1.05,0
859,851,1.05,0
851,858,1.04,0
853,851,1.04,0
852,851,1.04,0
855,855,1.04,0
865,865,1.06,0
865,862,1.06,0
863,866,1.05,0
855,859,1.04,0
874,880,1.07,0
886,895,1.08,0
897,891,1.1,0
893,896,1.09,0
897,902,1.1,0
903,907,1.1,0
894,901,1.09,0
899,896,1.1,0
892,889,1.09,0
903,896,1.1,0
901,898,1.1,0
899,898,1.1,0
895,897,1.09,0
898,899,1.1,0
899,897,1.1,0
891,894,1.09,0
887,887,1.08,0
880,874,1.07,0
877,881,1.07,0
884,880,1.08,0
885,879,1.08,0
884,880,1.08,0
880,880,1.07,0
889,886,1.09,0
884,889,1.08,0
890,890,1.09,0
879,877,1.07,0
879,880,1.07,0
880,881,1.07,0
887,883,1.08,0
891,885,1.09,0
890,887,1.09,0
885,885,1.08,0
891,884,1.09,0
880,882,1.07,0
870,871,1.06,0
877,873,1.07,0
879,878,1.07,0
890,894,1.09,0
896,896,1.09,0
896,893,1.09,0
897,890,1.1,0
891,894,1.09,0
887,889,1.08,0
882,880,1.08,0
886,887,1.08,0
894,892,1.09,0
890,887,1.09,0
894,891,1.09,0
887,889,1.08,0
895,896,1.09,0
906,903,1.11,0
897,900,1.1,0
895,883,1.09,0
899,914,1.1,0
903,904,1.1,0
911,907,1.11,0
903,907,1.1,0
915,915,1.12,0
911,913,1.11,0
910,909,1.11,0
910,912,1.11,0
917,912,1.12,0
913,918,1.11,0
915,912,1.12,0
913,912,1.11,0
916,913,1.12,0
924,925,1.13,0
928,930,1.13,0
939,939,1.15,0
931,926,1.14,0
923,927,1.13,0
923,929,1.13,0
931,928,1.14,0
935,931,1.14,0
933,937,1.14,0
935,936,1.14,0
931,938,1.14,0
934,932,1.14,0
944,944,1.15,0
959,955,1.17,0
966,963,1.18,0
986,977,1.2,0
977,993,1.19,0
982,985,1.2,0
985,990,1.2,0
985,981,1.2,0
977,979,1.19,0
976,973,1.19,0
986,989,1.2,0
993,994,1.21,0
993,993,1.21,0
991,987,1.21,0
991,991,1.21,0
987,988,1.21,0
985,983,1.2,0
986,985,1.2,0
998,1002,1.22,0
1012,1012,1.24,0
1040,1044,1.27,0
1058,1061,1.29,0
1054,1057,1.29,0
1062,1072,1.3,0
1066,1062,1.3,0
1049,1054,1.28,0
1039,1041,1.27,0
1046,1043,1.28,0
1046,1043,1.28,0
1044,1043,1.27,0
1062,1056,1.3,0
1063,1061,1.3,0
1064,1070,1.3,0
1050,1053,1.28,0
1058,1059,1.29,0
1065,1067,1.3,0
1067,1065,1.3,0
1069,1065,1.31,0
1083,1086,1.32,0
1090,1090,1.33,0
1085,1081,1.32,0
1078,1073,1.32,0
1081,1081,1.32,0
1087,1086,1.33,0
1090,1087,1.33,0
1091,1098,1.33,0
1104,1105,1.35,0
1099,1099,1.34,0
1088,1089,1.33,0
1104,1104,1.35,0
1117,1114,1.36,0
1113,1116,1.36,0
1123,1125,1.37,0
1130,1126,1.38,0
1152,1152,1.41,0
1137,1138,1.39,0
1162,1150,1.42,0
1150,1153,1.4,0
1149,1150,1.4,0
1141,1143,1.39,0
1131,1134,1.38,0
1136,1135,1.39,0
1135,1130,1.39,0
1131,1135,1.38,0
1137,1142,1.39,0
1136,1139,1.39,0
1143,1144,1.4,0
1139,1141,1.39,0
1147,1143,1.4,0
1153,1154,1.41,0
1146,1142,1.4,0
1134,1135,1.38,0
1127,1126,1.38,0
1111,1118,1.36,0
1117,1116,1.36,0
1117,1115,1.36,0
1121,1121,1.37,0
1119,1119,1.37,0
1109,1111,1.35,0
1104,1104,1.35,0
1111,1120,1.36,0
1107,1106,1.35,0
1105,1104,1.35,0
1129,1123,1.38,0
1129,1124,1.38,0
1119,1119,1.37,0
1095,1099,1.34,0
1105,1104,1.35,0
1111,1104,1.36,0
1107,1104,1.35,0
1115,1118,1.36,0
1111,1118,1.36,0
1110,1104,1.36,0
1101,1098,1.34,0
1090,1088,1.33,0
1098,1098,1.34,0
1103,1103,1.35,0
1103,1106,1.35,0
1104,1104,1.35,0
1101,1102,1.34,0
1102,1103,1.35,0
1092,1088,1.33,0
1090,1087,1.33,0
1104,1109,1.35,0
1104,1105,1.35,0
1103,1102,1.35,0
1093,1097,1.33,0
1091,1093,1.33,0
1088,1088,1.33,0
1088,1093,1.33,0
1103,1104,1.35,0
1098,1100,1.34,0
1093,1096,1.33,0
1097,1094,1.34,0
1091,1088,1.33,0
1101,1104,1.34,0
1113,1109,1.36,0
1095,1098,1.34,0
1099,1099,1.34,0
1097,1095,1.34,0
1091,1095,1.33,0
1093,1098,1.33,0
1093,1090,1.33,0
1089,1089,1.33,0
1075,1076,1.31,0
1076,1079,1.31,0
1089,1088,1.33,0
1088,1083,1.33,0
1081,1086,1.32,0
1075,1077,1.31,0
1083,1093,1.32,0
1094,1101,1.34,0
1099,1091,1.34,0
1090,1095,1.33,0
1089,1089,1.33,0
1103,1103,1.35,0
1103,1097,1.35,0
1102,1101,1.35,0
1107,1105,1.35,0
1100,1097,1.34,0
1088,1088,1.33,0
1090,1088,1.33,0
755,758,0.92,0
784,784,0.96,0
789,791,0.96,0
800,801,0.98,0
799,805,0.98,0
800,797,0.98,0
796,797,0.97,0
817,796,1,0
795,798,0.97,0
810,815,0.99,0
797,802,0.97,0
811,809,0.99,0
805,806,0.98,0
811,802,0.99,0
821,821,1,0
817,816,1,0
821,820,1,0
820,816,1,0
816,822,1,0
817,821,1,0
826,828,1.01,0
825,825,1.01,0
819,816,1,0
818,816,1,0
817,821,1,0
818,820,1,0
838,838,1.02,0
842,843,1.03,0
832,838,1.02,0
845,845,1.03,0
846,847,1.03,0
866,867,1.06,0
866,873,1.06,0
869,878,1.06,0
878,880,1.07,0
878,877,1.07,0
896,897,1.09,0
932,931,1.14,0
927,928,1.13,0
927,929,1.13,0
919,921,1.12,0
921,924,1.12,0
934,930,1.14,0
953,954,1.16,0
978,977,1.19,0
957,958,1.17,0
954,958,1.16,0
970,974,1.18,0
977,977,1.19,0
977,973,1.19,0
971,978,1.19,0
991,992,1.21,0
994,996,1.21,0
982,985,1.2,0
974,971,1.19,0
983,987,1.2,0
1001,1004,1.22,0
1032,1030,1.26,0
1063,1061,1.3,0
1053,1057,1.29,0
1053,1055,1.29,0
1047,1051,1.28,0
1087,1081,1.33,0
1073,1079,1.31,0
1069,1072,1.31,0
1062,1062,1.3,0
1067,1072,1.3,0
1072,1066,1.31,0
1099,1102,1.34,0
1117,1117,1.36,0
1104,1104,1.35,0
1099,1099,1.34,0
1095,1099,1.34,0
1093,1090,1.33,0
1087,1089,1.33,0
1074,1072,1.31,0
1074,1072,1.31,0
1071,1070,1.31,0
1065,1063,1.3,0
1062,1057,1.3,0
1065,1061,1.3,0
1059,1055,1.29,0
1054,1058,1.29,0
1059,1063,1.29,0
1075,1085,1.31,0
1099,1099,1.34,0
1094,1091,1.34,0
1087,1088,1.33,0
1072,1072,1.31,0
1070,1069,1.31,0
1066,1066,1.3,0
1051,1046,1.28,0
1034,1037,1.26,0
1022,1020,1.25,0
1022,1030,1.25,0
1031,1030,1.26,0
1023,1028,1.25,0
1013,1016,1.24,0
1008,1007,1.23,0
1008,1012,1.23,0
1007,1005,1.23,0
983,987,1.2,0
992,991,1.21,0
991,991,1.21,0
988,988,1.21,0
980,982,1.2,0
989,992,1.21,0
977,985,1.19,0
987,979,1.21,0
950,950,1.16,0
947,944,1.16,0
943,942,1.15,0
933,938,1.14,0
935,939,1.14,0
938,934,1.15,0
928,929,1.13,0
917,917,1.12,0
906,908,1.11,0
896,898,1.09,0
886,891,1.08,0
889,892,1.09,0
893,892,1.09,0
887,892,1.08,0
890,882,1.09,0
880,881,1.07,0
890,885,1.09,0
880,882,1.07,0
873,880,1.07,0
877,877,1.07,0
880,883,1.07,0
912,912,1.11,0
923,927,1.13,0
960,962,1.17,0
955,950,1.17,0
950,950,1.16,0
960,957,1.17,0
958,954,1.17,0
949,944,1.16,0
944,947,1.15,0
943,943,1.15,0
960,943,1.17,0
953,950,1.16,0
948,949,1.16,0
958,956,1.17,0
953,951,1.16,0
944,945,1.15,0
941,942,1.15,0
940,941,1.15,0
926,923,1.13,0
919,919,1.12,0
925,924,1.13,0
922,919,1.13,0
916,917,1.12,0
911,910,1.11,0
913,914,1.11,0
923,925,1.13,0
929,929,1.13,0
952,950,1.16,0
958,951,1.17,0
951,948,1.16,0
955,953,1.17,0
957,954,1.17,0
941,943,1.15,0
931,935,1.14,0
937,935,1.14,0
933,930,1.14,0
929,931,1.13,0
929,927,1.13,0
922,922,1.13,0
923,918,1.13,0
912,914,1.11,0
901,895,1.1,0
894,895,1.09,0
893,891,1.09,0
890,891,1.09,0
889,894,1.09,0
899,899,1.1,0
894,894,1.09,0
892,889,1.09,0
876,878,1.07,0
875,870,1.07,0
889,892,1.09,0
899,896,1.1,0
894,897,1.09,0
892,892,1.09,0
877,890,1.07,0
887,891,1.08,0
899,889,1.1,0
877,878,1.07,0
879,874,1.07,0
881,871,1.08,0
877,877,1.07,0
877,870,1.07,0
883,883,1.08,0
887,875,1.08,0
883,882,1.08,0
880,881,1.07,0
869,864,1.06,0
863,867,1.05,0
859,860,1.05,0
859,860,1.05,0
866,863,1.06,0
911,914,1.11,0
913,917,1.11,0
897,927,1.1,0
944,947,1.15,0
945,955,1.15,0
944,946,1.15,0
942,944,1.15,0
944,946,1.15,0
942,934,1.15,0
944,943,1.15,0
961,966,1.17,0
976,975,1.19,0
970,959,1.18,0
947,950,1.16,0
954,955,1.16,0
950,948,1.16,0
959,960,1.17,0
958,957,1.17,0
964,963,1.18,0
959,959,1.17,0
961,960,1.17,0
970,967,1.18,0
973,982,1.19,0
964,976,1.18,0
976,980,1.19,0
982,987,1.2,0
1008,1008,1.23,0
1008,1005,1.23,0
1008,1015,1.23,0
1007,1003,1.23,0
994,1001,1.21,0
981,994,1.2,0
1013,986,1.24,0
983,981,1.2,0
1001,987,1.22,0
981,980,1.2,0
981,985,1.2,0
992,993,1.21,0
1006,1007,1.23,0
990,983,1.21,0
977,981,1.19,0
983,977,1.2,0
989,985,1.21,0
981,978,1.2,0
978,976,1.19,0
971,974,1.19,0
961,943,1.17,0
961,966,1.17,0
976,974,1.19,0
960,976,1.17,0
971,975,1.19,0
976,971,1.19,0
972,976,1.19,0
976,969,1.19,0
981,976,1.2,0
976,975,1.19,0
963,962,1.18,0
959,957,1.17,0
953,958,1.16,0
969,966,1.18,0
994,998,1.21,0
1011,1008,1.23,0
1001,997,1.22,0
1001,1006,1.22,0
992,991,1.21,0
978,985,1.19,0
992,995,1.21,0
983,987,1.2,0
987,985,1.21,0
985,981,1.2,0
977,979,1.19,0
1019,1039,1.24,0
1013,1015,1.24,0
1008,1008,1.23,0
1011,1014,1.23,0
1030,1033,1.26,0
1043,1056,1.27,0
1063,1065,1.3,0
1083,1075,1.32,0
1082,1088,1.32,0
1072,1081,1.31,0
1076,1075,1.31,0
1077,1085,1.32,0
1079,1078,1.32,0
1077,1073,1.32,0
1086,1086,1.33,0
1109,1105,1.35,0
1104,1101,1.35,0
1105,1102,1.35,0
1115,1110,1.36,0
1107,1108,1.35,0
1100,1104,1.34,0
1097,1091,1.34,0
1094,1098,1.34,0
1088,1091,1.33,0
1088,1089,1.33,0
1149,1152,1.4,0
1149,1147,1.4,0
1143,1136,1.4,0
1164,1136,1.42,0
1135,1138,1.39,0
1135,1136,1.39,0
1123,1122,1.37,0
1126,1124,1.37,0
1149,1183,1.4,0
1161,1166,1.42,0
1187,1183,1.45,0
1190,1191,1.45,0
1184,1191,1.45,0
1179,1175,1.44,0
1168,1166,1.43,0
1148,1145,1.4,0
1137,1139,1.39,0
1162,1163,1.42,0
1171,1167,1.43,0
1177,1170,1.44,0
1171,1169,1.43,0
1168,1167,1.43,0
1168,1167,1.43,0
1169,1169,1.43,0
1162,1161,1.42,0
1158,1159,1.41,0
1187,1184,1.45,0
1179,1183,1.44,0
1190,1188,1.45,0
1217,1200,1.49,0
1235,1239,1.51,0
1250,1254,1.53,0
1297,1296,1.58,0
1288,1283,1.57,0
1286,1287,1.57,0
1295,1279,1.58,0
1269,1270,1.55,0
1239,1260,1.51,0
1251,1255,1.53,0
1277,1275,1.56,0
1269,1267,1.55,0
1258,1264,1.54,0
1270,1261,1.55,0
1255,1253,1.53,0
1245,1245,1.52,0
1262,1278,1.54,0
1299,1296,1.59,0
1265,1296,1.54,0
1291,1287,1.58,0
1307,1313,1.6,0
1301,1305,1.59,0
1309,1301,1.6,0
1293,1296,1.58,0
1278,1280,1.56,0
1289,1282,1.57,0
1279,1275,1.56,0
1282,1280,1.57,0
1277,1280,1.56,0
1266,1271,1.55,0
1296,1301,1.58,0
1328,1327,1.62,0
1309,1311,1.6,0
1302,1303,1.59,0
1355,1358,1.65,0
1385,1388,1.69,0
1397,1397,1.71,0
1378,1376,1.68,0
1373,1371,1.68,0
1363,1358,1.66,0
1331,1328,1.63,0
1319,1322,1.61,0
1305,1310,1.59,0
1298,1307,1.58,0
1310,1310,1.6,0
1290,1297,1.58,0
1289,1291,1.57,0
1265,1271,1.54,0
1268,1278,1.55,0
1268,1265,1.55,0
1289,1291,1.57,0
1299,1296,1.59,0
1295,1296,1.58,0
1283,1287,1.57,0
1284,1287,1.57,0
1284,1296,1.57,0
1293,1296,1.58,0
1313,1306,1.6,0
1302,1307,1.59,0
1300,1303,1.59,0
1287,1291,1.57,0
1280,1282,1.56,0
1284,1278,1.57,0
1264,1264,1.54,0
1277,1261,1.56,0
1249,1253,1.53,0
1250,1251,1.53,0
1253,1254,1.53,0
1254,1249,1.53,0
1243,1246,1.52,0
1225,1235,1.5,0
1223,1216,1.49,0
1221,1223,1.49,0
1231,1230,1.5,0
1232,1232,1.5,0
1236,1243,1.51,0
1291,1294,1.58,0
1278,1280,1.56,0
1268,1263,1.55,0
1264,1262,1.54,0
1252,1258,1.53,0
1281,1280,1.56,0
1290,1294,1.58,0
1293,1294,1.58,0
1296,1290,1.58,0
1312,1314,1.6,0
1311,1310,1.6,0
1311,1318,1.6,0
1303,1306,1.59,0
1298,1300,1.58,0
1300,1302,1.59,0
1317,1327,1.61,0
1317,1317,1.61,0
1330,1323,1.62,0
1327,1328,1.62,0
1323,1321,1.62,0
1328,1328,1.62,0
1328,1325,1.62,0
1329,1328,1.62,0
1324,1328,1.62,0
1306,1310,1.59,0
1298,1296,1.58,0
1322,1305,1.61,0
1303,1301,1.59,0
1298,1297,1.58,0
1290,1293,1.58,0
1291,1286,1.58,0
1307,1310,1.6,0
1296,1296,1.58,0
1283,1286,1.57,0
1296,1296,1.58,0
1296,1280,1.58,0
1293,1287,1.58,0
1286,1280,1.57,0
1281,1278,1.56,0
1267,1270,1.55,0
1251,1261,1.53,0
1242,1264,1.52,0
1264,1267,1.54,0
1273,1275,1.55,0
1277,1271,1.56,0
1267,1276,1.55,0
1264,1264,1.54,0
1289,1286,1.57,0
1314,1314,1.6,0
1307,1306,1.6,0
1315,1327,1.61,0
1322,1331,1.61,0
1346,1319,1.64,0
1351,1345,1.65,0
1385,1386,1.69,0
1380,1376,1.68,0
1370,1369,1.67,0
1503,1503,1.84,0
1515,1510,1.85,0
1509,1511,1.84,0
1489,1491,1.82,0
1488,1490,1.82,0
1471,1466,1.8,0
1435,1426,1.75,0
1425,1427,1.74,0
1427,1429,1.74,0
1431,1427,1.75,0
1415,1421,1.73,0
1409,1405,1.72,0
1397,1402,1.71,0
1390,1392,1.7,0
1390,1386,1.7,0
1377,1374,1.68,0
1357,1362,1.66,0
1366,1377,1.67,0
1363,1365,1.66,0
1351,1351,1.65,0
1328,1333,1.62,0
1318,1313,1.61,0
1312,1313,1.6,0
1295,1301,1.58,0
1297,1296,1.58,0
1293,1294,1.58,0
1299,1297,1.59,0
1292,1294,1.58,0
1286,1280,1.57,0
1268,1267,1.55,0
1257,1259,1.53,0
1257,1253,1.53,0
1253,1246,1.53,0
1307,1315,1.6,0
1330,1330,1.62,0
1328,1334,1.62,0
1348,1346,1.65,0
1349,1351,1.65,0
1346,1350,1.64,0
1342,1343,1.64,0
1339,1343,1.63,0
1334,1335,1.63,0
1334,1342,1.63,0
1347,1343,1.64,0
1331,1333,1.63,0
1327,1326,1.62,0
1310,1311,1.6,0
1307,1302,1.6,0
1302,1303,1.59,0
1319,1305,1.61,0
1319,1315,1.61,0
1306,1303,1.59,0
1301,1306,1.59,0
1293,1286,1.58,0
1287,1287,1.57,0
1278,1279,1.56,0
1264,1270,1.54,0
1271,1271,1.55,0
1271,1270,1.55,0
1247,1248,1.52,0
1243,1238,1.52,0
1232,1230,1.5,0
1239,1241,1.51,0
1243,1239,1.52,0
1241,1241,1.52,0
1236,1235,1.51,0
1241,1235,1.52,0
1238,1239,1.51,0
1261,1263,1.54,0
1271,1255,1.55,0
1252,1257,1.53,0
1249,1248,1.53,0
1245,1246,1.52,0
1259,1260,1.54,0
1293,1290,1.58,0
1284,1280,1.57,0
1265,1267,1.54,0
1275,1273,1.56,0
1266,1264,1.55,0
1257,1254,1.53,0
1247,1244,1.52,0
1245,1246,1.52,0
1232,1231,1.5,0
1215,1217,1.48,0
1214,1215,1.48,0
1245,1247,1.52,0
1266,1272,1.55,0
1291,1292,1.58,0
1283,1291,1.57,0
1270,1267,1.55,0
1280,1277,1.56,0
1274,1273,1.56,0
1270,1272,1.55,0
1273,1277,1.55,0
1271,1271,1.55,0
1265,1266,1.54,0
1250,1248,1.53,0
1235,1234,1.51,0
1232,1230,1.5,0
1232,1231,1.5,0
1225,1226,1.5,0
1219,1220,1.49,0
1217,1219,1.49,0
1217,1213,1.49,0
1216,1211,1.48,0
1200,1203,1.47,0
1191,1197,1.45,0
1200,1200,1.47,0
1205,1204,1.47,0
1200,1200,1.47,0
1197,1195,1.46,0
1194,1191,1.46,0
1193,1189,1.46,0
1200,1199,1.47,0
1200,1200,1.47,0
1200,1219,1.47,0
1228,1231,1.5,0
1233,1239,1.51,0
1245,1246,1.52,0
1232,1232,1.5,0
1223,1225,1.49,0
1268,1264,1.55,0
1262,1263,1.54,0
1258,1254,1.54,0
1259,1255,1.54,0
1255,1255,1.53,0
1253,1254,1.53,0
1247,1242,1.52,0
1232,1230,1.5,0
1232,1229,1.5,0
1232,1230,1.5,0
1249,1250,1.53,0
1258,1254,1.54,0
1254,1249,1.53,0
1248,1246,1.52,0
1239,1243,1.51,0
1239,1234,1.51,0
1238,1244,1.51,0
1238,1242,1.51,0
1230,1232,1.5,0
1229,1230,1.5,0
1246,1245,1.52,0
1248,1257,1.52,0
1238,1238,1.51,0
1233,1233,1.51,0
1233,1238,1.51,0
1241,1240,1.52,0
1235,1239,1.51,0
1238,1236,1.51,0
1258,1254,1.54,0
1247,1246,1.52,0
1248,1243,1.52,0
1258,1261,1.54,0
1265,1265,1.54,0
1267,1264,1.55,0
1263,1264,1.54,0
1259,1254,1.54,0
1251,1250,1.53,0
1249,1242,1.53,0
1227,1226,1.5,0
1223,1221,1.49,0
1216,1217,1.48,0
1216,1217,1.48,0
1207,1204,1.47,0
1199,1203,1.46,0
1189,1185,1.45,0
1205,1201,1.47,0
1228,1232,1.5,0
1233,1232,1.51,0
1222,1229,1.49,0
1253,1251,1.53,0
1254,1251,1.53,0
1244,1245,1.52,0
1241,1234,1.52,0
1238,1239,1.51,0
1234,1232,1.51,0
1234,1234,1.51,0
1233,1232,1.51,0
1232,1232,1.5,0
1230,1230,1.5,0
1231,1231,1.5,0
1231,1232,1.5,0
1223,1223,1.49,0
1219,1222,1.49,0
1218,1216,1.49,0
1223,1221,1.49,0
1226,1228,1.5,0
1220,1219,1.49,0
1226,1227,1.5,0
1226,1223,1.5,0
1222,1216,1.49,0
1221,1223,1.49,0
1221,1225,1.49,0
1221,1220,1.49,0
1217,1217,1.49,0
1217,1213,1.49,0
1213,1205,1.48,0
1225,1228,1.5,0
1227,1229,1.5,0
1234,1232,1.51,0
1232,1230,1.5,0
1232,1235,1.5,0
1247,1244,1.52,0
1238,1235,1.51,0
1232,1232,1.5,0
1228,1222,1.5,0
1235,1237,1.51,0
1235,1230,1.51,0
1221,1225,1.49,0
1218,1216,1.49,0
1215,1213,1.48,0
1205,1210,1.47,0
1203,1200,1.47,0
1203,1208,1.47,0
1202,1204,1.47,0
1202,1200,1.47,0
1200,1198,1.47,0
1195,1194,1.46,0
1209,1202,1.48,0
1193,1197,1.46,0
1186,1184,1.45,0
1182,1185,1.44,0
1181,1187,1.44,0
1185,1179,1.45,0
1177,1178,1.44,0
1202,1203,1.47,0
1198,1200,1.46,0
1198,1199,1.46,0
1193,1193,1.46,0
1185,1186,1.45,0
1179,1185,1.44,0
1183,1187,1.44,0
1191,1188,1.45,0
1211,1209,1.48,0
1231,1232,1.5,0
1211,1218,1.48,0
1211,1212,1.48,0
1210,1214,1.48,0
1213,1205,1.48,0
1214,1211,1.48,0
1206,1211,1.47,0
1206,1207,1.47,0
1189,1191,1.45,0
1213,1207,1.48,0
1213,1213,1.48,0
1210,1210,1.48,0
1229,1232,1.5,0
1219,1226,1.49,0
1226,1229,1.5,0
1227,1226,1.5,0
1205,1203,1.47,0
1209,1203,1.48,0
1203,1207,1.47,0
1205,1206,1.47,0
1206,1214,1.47,0
1205,1203,1.47,0
1211,1213,1.48,0
1201,1210,1.47,0
1203,1203,1.47,0
1202,1200,1.47,0
1194,1199,1.46,0
1189,1191,1.45,0
1187,1184,1.45,0
1199,1202,1.46,0
1229,1232,1.5,0
1219,1217,1.49,0
1232,1232,1.5,0
1241,1243,1.52,0
1235,1232,1.51,0
1239,1235,1.51,0
1232,1232,1.5,0
1216,1218,1.48,0
1213,1207,1.48,0
1215,1218,1.48,0
1232,1231,1.5,0
1225,1221,1.5,0
1213,1212,1.48,0
1229,1230,1.5,0
1225,1233,1.5,0
1232,1237,1.5,0
1246,1243,1.52,0
1232,1231,1.5,0
1226,1229,1.5,0
1223,1229,1.49,0
1217,1217,1.49,0
1215,1217,1.48,0
1204,1209,1.47,0
1214,1211,1.48,0
1209,1210,1.48,0
1214,1215,1.48,0
1208,1213,1.47,0
1209,1213,1.48,0
1206,1202,1.47,0
1209,1207,1.48,0
1265,1264,1.54,0
1251,1256,1.53,0
1243,1242,1.52,0
1233,1233,1.51,0
1225,1226,1.5,0
1226,1219,1.5,0
1218,1216,1.49,0
1209,1206,1.48,0
1213,1213,1.48,0
1205,1210,1.47,0
1221,1222,1.49,0
1223,1220,1.49,0
1219,1216,1.49,0
1243,1218,1.52,0
1211,1212,1.48,0
1223,1225,1.49,0
1232,1232,1.5,0
1227,1227,1.5,0
1219,1217,1.49,0
1217,1215,1.49,0
1209,1205,1.48,0
1206,1202,1.47,0
1215,1210,1.48,0
1209,1211,1.48,0
1229,1232,1.5,0
1259,1269,1.54,0
1273,1271,1.55,0
1305,1296,1.59,0
1305,1313,1.59,0
1329,1328,1.62,0
1322,1315,1.61,0
1313,1315,1.6,0
1296,1296,1.58,0
1314,1311,1.6,0
1324,1317,1.62,0
1325,1326,1.62,0
1327,1323,1.62,0
1316,1323,1.61,0
1327,1325,1.62,0
1323,1323,1.62,0
1311,1315,1.6,0
1310,1307,1.6,0
1299,1296,1.59,0
1294,1296,1.58,0
1281,1281,1.56,0
1277,1276,1.56,0
1266,1270,1.55,0
1264,1261,1.54,0
1261,1259,1.54,0
1254,1252,1.53,0
1258,1259,1.54,0
1265,1267,1.54,0
1269,1270,1.55,0
1265,1267,1.54,0
1264,1271,1.54,0
1263,1261,1.54,0
1267,1270,1.55,0
1267,1265,1.55,0
1270,1271,1.55,0
1269,1273,1.55,0
1265,1265,1.54,0
1286,1282,1.57,0
1287,1285,1.57,0
1259,1263,1.54,0
1264,1258,1.54,0
1262,1258,1.54,0
1253,1254,1.53,0
1242,1237,1.52,0
1232,1234,1.5,0
1232,1237,1.5,0
1216,1219,1.48,0
1211,1206,1.48,0
1205,1207,1.47,0
1207,1207,1.47,0
1200,1210,1.47,0
1210,1212,1.48,0
1231,1227,1.5,0
1227,1222,1.5,0
1213,1209,1.48,0
1200,1201,1.47,0
1190,1196,1.45,0
1190,1189,1.45,0
1181,1184,1.44,0
1180,1175,1.44,0
1172,1171,1.43,0
1167,1168,1.42,0
1198,1200,1.46,0
1227,1232,1.5,0
1232,1218,1.5,0
1222,1222,1.49,0
1226,1231,1.5,0
1241,1239,1.52,0
1241,1235,1.52,0
1254,1254,1.53,0
1273,1269,1.55,0
1272,1270,1.55,0
1264,1259,1.54,0
1259,1255,1.54,0
1251,1253,1.53,0
1253,1257,1.53,0
1248,1247,1.52,0
1235,1234,1.51,0
1230,1228,1.5,0
1232,1232,1.5,0
1230,1232,1.5,0
1234,1232,1.51,0
1239,1242,1.51,0
1254,1259,1.53,0
1271,1271,1.55,0
1267,1266,1.55,0
1264,1263,1.54,0
1259,1257,1.54,0
1264,1264,1.54,0
1258,1263,1.54,0
1264,1264,1.54,0
1274,1276,1.56,0
1264,1264,1.54,0
1260,1255,1.54,0
1248,1243,1.52,0
1246,1238,1.52,0
1237,1235,1.51,0
1227,1225,1.5,0
1233,1232,1.51,0
1220,1221,1.49,0
1223,1222,1.49,0
1217,1220,1.49,0
1213,1218,1.48,0
1214,1211,1.48,0
1219,1219,1.49,0
1233,1237,1.51,0
1221,1223,1.49,0
1207,1211,1.47,0
1200,1200,1.47,0
1217,1217,1.49,0
1216,1213,1.48,0
1207,1205,1.47,0
1210,1210,1.48,0
1213,1210,1.48,0
1201,1200,1.47,0
1194,1189,1.46,0
1174,1179,1.43,0
1185,1187,1.45,0
1183,1188,1.44,0
1181,1182,1.44,0
1175,1176,1.43,0
1168,1168,1.43,0
1155,1157,1.41,0
1150,1151,1.4,0
1157,1158,1.41,0
1150,1151,1.4,0
1149,1150,1.4,0
1148,1143,1.4,0
1151,1147,1.41,0
1149,1153,1.4,0
1159,1162,1.42,0
1176,1177,1.44,0
1178,1186,1.44,0
1197,1200,1.46,0
1181,1199,1.44,0
1198,1200,1.46,0
1203,1203,1.47,0
1221,1219,1.49,0
1226,1229,1.5,0
1243,1246,1.52,0
1244,1245,1.52,0
1247,1249,1.52,0
1239,1238,1.51,0
1241,1233,1.52,0
1232,1232,1.5,0
1210,1207,1.48,0
1200,1201,1.47,0
1198,1200,1.46,0
1200,1199,1.47,0
1195,1193,1.46,0
1197,1188,1.46,0
1181,1179,1.44,0
1179,1175,1.44,0
1169,1174,1.43,0
1171,1170,1.43,0
1175,1177,1.43,0
1179,1173,1.44,0
1180,1182,1.44,0
1171,1169,1.43,0
1205,1212,1.47,0
1213,1207,1.48,0
1192,1191,1.46,0
1188,1187,1.45,0
1186,1186,1.45,0
1184,1187,1.45,0
1182,1182,1.44,0
1181,1179,1.44,0
1181,1182,1.44,0
1174,1170,1.43,0
1170,1168,1.43,0
1171,1169,1.43,0
1166,1168,1.42,0
1166,1167,1.42,0
1159,1162,1.42,0
1156,1154,1.41,0
1157,1161,1.41,0
1140,1145,1.39,0
1127,1154,1.38,0
1156,1157,1.41,0
1168,1171,1.43,0
1187,1193,1.45,0
1199,1191,1.46,0
1198,1195,1.46,0
1200,1203,1.47,0
1200,1199,1.47,0
1247,1241,1.52,0
1242,1241,1.52,0
1244,1239,1.52,0
1232,1234,1.5,0
1223,1227,1.49,0
1218,1223,1.49,0
1215,1214,1.48,0
1197,1187,1.46,0
1204,1205,1.47,0
1201,1207,1.47,0
1204,1206,1.47,0
1206,1201,1.47,0
1219,1217,1.49,0
1249,1245,1.53,0
1263,1264,1.54,0
1290,1291,1.58,0
1294,1290,1.58,0
1291,1293,1.58,0
1289,1286,1.57,0
1296,1301,1.58,0
1296,1296,1.58,0
1286,1279,1.57,0
1273,1271,1.55,0
1287,1288,1.57,0
1280,1283,1.56,0
1283,1281,1.57,0
1290,1285,1.58,0
1300,1297,1.59,0
1296,1291,1.58,0
1281,1282,1.56,0
1289,1291,1.57,0
1299,1286,1.59,0
1286,1287,1.57,0
1278,1274,1.56,0
1273,1275,1.55,0
1295,1294,1.58,0
1306,1306,1.59,0
