AnalogValue,Density,Amplitude
1195,1194,1.46
1197,1198,1.46
1200,1211,1.47
1264,1265,1.54
1264,1264,1.54
1251,1255,1.53
1266,1274,1.55
1274,1279,1.56
1278,1271,1.56
1271,1268,1.55
1255,1261,1.53
1254,1250,1.53
1262,1267,1.54
1298,1300,1.58
1291,1285,1.58
1283,1279,1.57
1277,1271,1.56
1271,1274,1.55
1283,1286,1.57
1293,1291,1.58
1265,1263,1.54
1264,1264,1.54
1264,1263,1.54
1258,1256,1.54
1251,1250,1.53
1234,1239,1.51
1232,1231,1.5
1222,1217,1.49
1216,1218,1.48
1203,1204,1.47
1197,1200,1.46
1195,1197,1.46
1205,1206,1.47
1230,1232,1.5
1239,1241,1.51
1232,1232,1.5
1237,1235,1.51
1231,1235,1.5
1222,1228,1.49
1216,1215,1.48
1207,1203,1.47
1200,1200,1.47
1189,1188,1.45
1198,1195,1.46
1187,1188,1.45
1193,1197,1.46
1217,1215,1.49
1216,1217,1.48
1233,1232,1.51
1223,1228,1.49
1216,1215,1.48
1215,1210,1.48
1200,1200,1.47
1186,1188,1.45
1182,1207,1.44
1171,1182,1.43
1167,1165,1.42
1154,1152,1.41
1152,1152,1.41
1149,1148,1.4
1151,1143,1.41
1146,1140,1.4
1136,1137,1.39
1147,1151,1.4
1161,1157,1.42
1139,1136,1.39
1118,1121,1.37
1120,1117,1.37
1117,1113,1.36
1106,1104,1.35
1101,1103,1.34
1102,1097,1.35
1086,1078,1.33
1086,1082,1.33
1085,1086,1.32
1086,1088,1.33
1073,1077,1.31
1074,1073,1.31
1083,1087,1.32
1103,1097,1.35
1081,1082,1.32
1074,1072,1.31
1070,1072,1.31
1069,1071,1.31
1069,1061,1.31
1067,1065,1.3
1062,1061,1.3
1057,1053,1.29
1049,1053,1.28
1051,1049,1.28
1041,1044,1.27
1040,1023,1.27
1031,1030,1.26
1041,1040,1.27
1049,1049,1.28
1083,1082,1.32
1072,1072,1.31
1077,1083,1.32
1088,1090,1.33
1087,1086,1.33
1081,1076,1.32
1072,1072,1.31
1068,1061,1.3
1057,1053,1.29
1062,1061,1.3
1063,1061,1.3
1050,1047,1.28
1042,1048,1.27
1043,1046,1.27
1058,1051,1.29
1042,1054,1.27
1035,1035,1.26
1040,1039,1.27
1034,1031,1.26
1035,1030,1.26
1019,1019,1.24
1008,1008,1.23
1014,1010,1.24
1005,1003,1.23
1004,1001,1.23
999,999,1.22
994,994,1.21
985,991,1.2
987,992,1.21
979,989,1.2
982,982,1.2
976,976,1.19
966,963,1.18
962,973,1.17
966,970,1.18
962,963,1.17
963,961,1.18
956,950,1.17
954,950,1.16
949,953,1.16
943,943,1.15
937,937,1.14
945,944,1.15
944,946,1.15
950,953,1.16
955,959,1.17
957,953,1.17
955,947,1.17
946,951,1.16
938,943,1.15
928,923,1.13
919,918,1.12
918,919,1.12
918,915,1.12
909,911,1.11
912,912,1.11
905,906,1.11
901,902,1.1
895,891,1.09
910,894,1.11
901,902,1.1
906,897,1.11
917,907,1.12
901,905,1.1
923,914,1.13
912,913,1.11
911,912,1.11
895,892,1.09
883,882,1.08
883,883,1.08
884,881,1.08
890,890,1.09
885,885,1.08
886,890,1.08
890,887,1.09
889,894,1.09
911,910,1.11
907,906,1.11
910,905,1.11
922,919,1.13
923,928,1.13
933,929,1.14
944,924,1.15
915,924,1.12
913,912,1.11
909,901,1.11
900,901,1.1
900,897,1.1
906,899,1.11
908,905,1.11
901,907,1.1
896,899,1.09
907,899,1.11
887,883,1.08
887,891,1.08
880,887,1.07
887,884,1.08
885,881,1.08
893,867,1.09
875,877,1.07
874,874,1.07
864,866,1.05
882,880,1.08
882,880,1.08
880,880,1.07
881,880,1.08
881,880,1.08
879,880,1.07
885,880,1.08
877,880,1.07
874,880,1.07
863,861,1.05
873,869,1.07
865,865,1.06
862,866,1.05
866,874,1.06
869,876,1.06
876,871,1.07
870,867,1.06
869,870,1.06
848,849,1.04
843,848,1.03
842,847,1.03
843,843,1.03
842,842,1.03
843,841,1.03
837,848,1.02
837,838,1.02
826,830,1.01
819,823,1.0
839,817,1.02
819,816,1.0
821,826,1.0
820,823,1.0
818,821,1.0
838,833,1.02
816,829,1.0
829,827,1.01
826,829,1.01
827,826,1.01
830,823,1.01
823,826,1.0
823,816,1.0
819,819,1.0
822,818,1.0
816,817,1.0
806,807,0.98
805,810,0.98
810,805,0.99
809,810,0.99
803,803,0.98
806,811,0.98
801,799,0.98
799,794,0.98
797,797,0.97
787,786,0.96
786,784,0.96
786,786,0.96
784,784,0.96
785,784,0.96
784,796,0.96
784,784,0.96
789,803,0.96
786,784,0.96
777,778,0.95
771,775,0.94
784,786,0.96
793,789,0.97
799,791,0.98
797,793,0.97
792,791,0.97
784,797,0.96
785,784,0.96
784,798,0.96
791,795,0.97
784,784,0.96
791,779,0.97
793,796,0.97
802,803,0.98
799,801,0.98
802,802,0.98
800,797,0.98
802,800,0.98
800,799,0.98
793,793,0.97
794,789,0.97
805,798,0.98
805,804,0.98
798,798,0.97
809,811,0.99
798,799,0.97
799,799,0.98
798,793,0.97
803,793,0.98
805,801,0.98
810,813,0.99
808,813,0.99
814,806,0.99
815,808,1.0
804,802,0.98
797,798,0.97
795,788,0.97
793,793,0.97
789,795,0.96
806,802,0.98
805,806,0.98
817,816,1.0
822,837,1.0
815,813,1.0
815,813,1.0
816,814,1.0
816,818,1.0
816,816,1.0
807,816,0.99
809,814,0.99
811,797,0.99
821,823,1.0
818,816,1.0
816,814,1.0
845,833,1.03
833,832,1.02
845,846,1.03
847,846,1.03
845,843,1.03
841,841,1.03
835,835,1.02
830,826,1.01
830,829,1.01
827,829,1.01
819,821,1.0
821,826,1.0
827,820,1.01
839,846,1.02
868,864,1.06
855,850,1.04
861,856,1.05
862,864,1.05
863,864,1.05
864,868,1.05
864,851,1.05
883,861,1.08
837,858,1.02
838,850,1.02
837,846,1.02
833,830,1.02
831,827,1.01
831,826,1.01
846,844,1.03
843,846,1.03
847,844,1.03
844,850,1.03
848,847,1.04
833,831,1.02
836,832,1.02
843,845,1.03
848,846,1.04
847,845,1.03
845,846,1.03
839,831,1.02
835,842,1.02
832,826,1.02
819,818,1.0
816,816,1.0
815,815,1.0
817,819,1.0
823,825,1.0
818,821,1.0
823,826,1.0
833,826,1.02
816,816,1.0
816,816,1.0
812,811,0.99
827,813,1.01
807,809,0.99
805,814,0.98
793,798,0.97
813,801,0.99
799,799,0.98
782,783,0.95
781,779,0.95
784,784,0.96
783,781,0.96
783,784,0.96
807,799,0.99
818,817,1.0
816,818,1.0
814,816,0.99
803,799,0.98
797,795,0.97
802,800,0.98
801,800,0.98
803,801,0.98
800,799,0.98
802,786,0.98
800,801,0.98
817,817,1.0
819,818,1.0
816,817,1.0
820,821,1.0
831,828,1.01
838,831,1.02
837,834,1.02
832,832,1.02
832,830,1.02
831,832,1.01
839,837,1.02
832,825,1.02
837,839,1.02
839,829,1.02
842,845,1.03
853,854,1.04
848,849,1.04
845,847,1.03
839,844,1.02
829,823,1.01
826,825,1.01
827,828,1.01
825,828,1.01
825,826,1.01
831,828,1.01
829,830,1.01
833,831,1.02
848,842,1.04
840,832,1.03
837,844,1.02
847,832,1.03
847,832,1.03
848,849,1.04
847,848,1.03
847,833,1.03
842,846,1.03
848,837,1.04
831,819,1.01
829,827,1.01
834,837,1.02
869,861,1.06
855,870,1.04
869,877,1.06
884,887,1.08
890,891,1.09
879,880,1.07
877,877,1.07
876,880,1.07
879,879,1.07
874,874,1.07
874,877,1.07
877,879,1.07
870,876,1.06
867,870,1.06
854,852,1.04
861,861,1.05
856,859,1.05
856,852,1.05
857,857,1.05
860,859,1.05
852,861,1.04
860,853,1.05
853,854,1.04
866,870,1.06
862,864,1.05
853,859,1.04
855,850,1.04
852,855,1.04
848,853,1.04
849,849,1.04
850,853,1.04
846,847,1.03
849,855,1.04
855,853,1.04
862,863,1.05
855,857,1.04
853,854,1.04
886,882,1.08
892,877,1.09
886,890,1.08
885,882,1.08
882,881,1.08
877,880,1.07
882,880,1.08
878,879,1.07
870,878,1.06
869,874,1.06
867,867,1.06
885,880,1.08
871,871,1.06
865,865,1.06
869,872,1.06
885,886,1.08
883,886,1.08
881,880,1.08
887,889,1.08
891,884,1.09
880,880,1.07
865,867,1.06
877,877,1.07
882,881,1.08
880,884,1.07
883,879,1.08
886,880,1.08
882,882,1.08
879,877,1.07
871,880,1.06
865,869,1.06
867,866,1.06
877,877,1.07
875,870,1.07
870,877,1.06
870,876,1.06
875,879,1.07
871,870,1.06
874,869,1.07
849,851,1.04
851,848,1.04
848,851,1.04
850,848,1.04
848,849,1.04
849,833,1.04
850,849,1.04
848,848,1.04
835,832,1.02
838,837,1.02
837,837,1.02
838,832,1.02
844,842,1.03
848,846,1.04
839,846,1.02
845,848,1.03
847,839,1.03
830,823,1.01
834,836,1.02
835,836,1.02
842,836,1.03
841,843,1.03
839,837,1.02
834,834,1.02
831,829,1.01
822,818,1.0
816,815,1.0
809,814,0.99
810,806,0.99
807,804,0.99
807,806,0.99
816,821,1.0
816,814,1.0
815,816,1.0
811,802,0.99
815,816,1.0
827,826,1.01
831,831,1.01
845,843,1.03
853,855,1.04
849,848,1.04
845,846,1.03
844,843,1.03
847,847,1.03
851,848,1.04
848,848,1.04
852,851,1.04
870,869,1.06
870,875,1.06
877,875,1.07
878,880,1.07
896,891,1.09
895,891,1.09
890,890,1.09
885,886,1.08
886,883,1.08
889,886,1.09
891,886,1.09
885,883,1.08
880,880,1.07
884,885,1.08
877,873,1.07
880,870,1.07
877,877,1.07
883,880,1.08
880,880,1.07
874,880,1.07
880,876,1.07
876,871,1.07
870,876,1.06
871,873,1.06
874,880,1.07
875,879,1.07
879,874,1.07
880,875,1.07
877,878,1.07
882,887,1.08
882,885,1.08
885,886,1.08
898,901,1.1
899,898,1.1
905,905,1.11
911,912,1.11
912,913,1.11
912,913,1.11
912,912,1.11
941,939,1.15
944,945,1.15
944,944,1.15
947,949,1.16
955,950,1.17
954,949,1.16
954,952,1.16
950,950,1.16
950,955,1.16
945,945,1.15
942,935,1.15
922,925,1.13
921,918,1.12
919,923,1.12
915,916,1.12
910,912,1.11
912,912,1.11
911,912,1.11
905,911,1.11
905,900,1.11
898,898,1.1
902,899,1.1
895,898,1.09
901,905,1.1
903,901,1.1
897,899,1.1
889,893,1.09
883,890,1.08
880,864,1.07
880,873,1.07
875,871,1.07
873,871,1.07
870,875,1.06
881,890,1.08
882,886,1.08
884,880,1.08
879,880,1.07
875,878,1.07
866,874,1.06
891,898,1.09
909,908,1.11
902,900,1.1
896,896,1.09
891,889,1.09
902,900,1.1
901,912,1.1
883,885,1.08
881,883,1.08
886,884,1.08
888,891,1.08
895,895,1.09
898,894,1.1
915,901,1.12
907,908,1.11
887,893,1.08
884,885,1.08
880,881,1.07
878,880,1.07
877,878,1.07
874,880,1.07
877,871,1.07
867,869,1.06
859,855,1.05
847,840,1.03
838,837,1.02
835,841,1.02
837,844,1.02
838,839,1.02
845,845,1.03
846,850,1.03
844,844,1.03
834,835,1.02
832,826,1.02
828,829,1.01
834,832,1.02
831,838,1.01
832,833,1.02
837,834,1.02
835,838,1.02
834,835,1.02
829,827,1.01
818,817,1.0
818,819,1.0
831,825,1.01
822,823,1.0
827,829,1.01
827,830,1.01
831,822,1.01
820,821,1.0
816,819,1.0
807,811,0.99
808,806,0.99
820,819,1.0
832,827,1.02
830,832,1.01
834,833,1.02
834,832,1.02
849,845,1.04
835,838,1.02
843,839,1.03
862,864,1.05
883,886,1.08
898,899,1.1
902,896,1.1
905,903,1.11
898,906,1.1
897,899,1.1
891,894,1.09
902,902,1.1
900,897,1.1
898,900,1.1
903,905,1.1
905,909,1.11
906,900,1.11
901,907,1.1
906,906,1.11
897,907,1.1
901,897,1.1
896,897,1.09
894,896,1.09
886,896,1.08
889,891,1.09
892,891,1.09
891,895,1.09
881,880,1.08
880,875,1.07
885,893,1.08
894,892,1.09
885,889,1.08
901,898,1.1
900,902,1.1
895,897,1.09
896,893,1.09
890,884,1.09
874,879,1.07
874,870,1.07
876,871,1.07
880,878,1.07
899,893,1.1
894,891,1.09
889,893,1.09
892,896,1.09
906,894,1.11
898,897,1.1
889,896,1.09
892,889,1.09
893,892,1.09
897,897,1.1
896,894,1.09
886,891,1.08
886,883,1.08
877,877,1.07
869,871,1.06
873,875,1.07
875,875,1.07
885,881,1.08
882,885,1.08
880,881,1.07
883,882,1.08
879,879,1.07
870,871,1.06
878,880,1.07
879,880,1.07
875,874,1.07
879,875,1.07
875,878,1.07
878,877,1.07
875,873,1.07
867,867,1.06
858,853,1.05
850,849,1.04
865,867,1.06
865,867,1.06
865,870,1.06
880,867,1.07
865,867,1.06
858,863,1.05
857,864,1.05
859,851,1.05
851,858,1.04
853,851,1.04
852,851,1.04
855,855,1.04
865,865,1.06
865,862,1.06
863,866,1.05
855,859,1.04
874,880,1.07
886,895,1.08
897,891,1.1
893,896,1.09
897,902,1.1
903,907,1.1
894,901,1.09
899,896,1.1
892,889,1.09
903,896,1.1
901,898,1.1
899,898,1.1
895,897,1.09
898,899,1.1
899,897,1.1
891,894,1.09
887,887,1.08
880,874,1.07
877,881,1.07
884,880,1.08
885,879,1.08
884,880,1.08
880,880,1.07
889,886,1.09
884,889,1.08
890,890,1.09
879,877,1.07
879,880,1.07
880,881,1.07
887,883,1.08
891,885,1.09
890,887,1.09
885,885,1.08
891,884,1.09
880,882,1.07
870,871,1.06
877,873,1.07
879,878,1.07
890,894,1.09
896,896,1.09
896,893,1.09
897,890,1.1
891,894,1.09
887,889,1.08
882,880,1.08
886,887,1.08
894,892,1.09
890,887,1.09
894,891,1.09
887,889,1.08
895,896,1.09
906,903,1.11
897,900,1.1
895,883,1.09
899,914,1.1
903,904,1.1
911,907,1.11
903,907,1.1
915,915,1.12
911,913,1.11
910,909,1.11
910,912,1.11
917,912,1.12
913,918,1.11
915,912,1.12
913,912,1.11
916,913,1.12
924,925,1.13
928,930,1.13
939,939,1.15
931,926,1.14
923,927,1.13
923,929,1.13
931,928,1.14
935,931,1.14
933,937,1.14
935,936,1.14
931,938,1.14
934,932,1.14
944,944,1.15
959,955,1.17
966,963,1.18
986,977,1.2
977,993,1.19
982,985,1.2
985,990,1.2
985,981,1.2
977,979,1.19
976,973,1.19
986,989,1.2
993,994,1.21
993,993,1.21
991,987,1.21
991,991,1.21
987,988,1.21
985,983,1.2
986,985,1.2
998,1002,1.22
1012,1012,1.24
1040,1044,1.27
1058,1061,1.29
1054,1057,1.29
1062,1072,1.3
1066,1062,1.3
1049,1054,1.28
1039,1041,1.27
1046,1043,1.28
1046,1043,1.28
1044,1043,1.27
1062,1056,1.3
1063,1061,1.3
1064,1070,1.3
1050,1053,1.28
1058,1059,1.29
1065,1067,1.3
1067,1065,1.3
1069,1065,1.31
1083,1086,1.32
1090,1090,1.33
1085,1081,1.32
1078,1073,1.32
1081,1081,1.32
1087,1086,1.33
1090,1087,1.33
1091,1098,1.33
1104,1105,1.35
1099,1099,1.34
1088,1089,1.33
1104,1104,1.35
1117,1114,1.36
1113,1116,1.36
1123,1125,1.37
1130,1126,1.38
1152,1152,1.41
1137,1138,1.39
1162,1150,1.42
1150,1153,1.4
1149,1150,1.4
1141,1143,1.39
1131,1134,1.38
1136,1135,1.39
1135,1130,1.39
1131,1135,1.38
1137,1142,1.39
1136,1139,1.39
1143,1144,1.4
1139,1141,1.39
1147,1143,1.4
1153,1154,1.41
1146,1142,1.4
1134,1135,1.38
1127,1126,1.38
1111,1118,1.36
1117,1116,1.36
1117,1115,1.36
1121,1121,1.37
1119,1119,1.37
1109,1111,1.35
1104,1104,1.35
1111,1120,1.36
1107,1106,1.35
1105,1104,1.35
1129,1123,1.38
1129,1124,1.38
1119,1119,1.37
1095,1099,1.34
1105,1104,1.35
1111,1104,1.36
1107,1104,1.35
1115,1118,1.36
1111,1118,1.36
1110,1104,1.36
1101,1098,1.34
1090,1088,1.33
1098,1098,1.34
1103,1103,1.35
1103,1106,1.35
1104,1104,1.35
1101,1102,1.34
1102,1103,1.35
1092,1088,1.33
1090,1087,1.33
1104,1109,1.35
1104,1105,1.35
1103,1102,1.35
1093,1097,1.33
1091,1093,1.33
1088,1088,1.33
1088,1093,1.33
1103,1104,1.35
1098,1100,1.34
1093,1096,1.33
1097,1094,1.34
1091,1088,1.33
1101,1104,1.34
1113,1109,1.36
1095,1098,1.34
1099,1099,1.34
1097,1095,1.34
1091,1095,1.33
1093,1098,1.33
1093,1090,1.33
1089,1089,1.33
1075,1076,1.31
1076,1079,1.31
1089,1088,1.33
1088,1083,1.33
1081,1086,1.32
1075,1077,1.31
1083,1093,1.32
1094,1101,1.34
1099,1091,1.34
1090,1095,1.33
1089,1089,1.33
1103,1103,1.35
1103,1097,1.35
1102,1101,1.35
1107,1105,1.35
1100,1097,1.34
1088,1088,1.33
1090,1088,1.33
755,758,0.92
784,784,0.96
789,791,0.96
800,801,0.98
799,805,0.98
800,797,0.98
796,797,0.97
817,796,1.0
795,798,0.97
810,815,0.99
797,802,0.97
811,809,0.99
805,806,0.98
811,802,0.99
821,821,1.0
817,816,1.0
821,820,1.0
820,816,1.0
816,822,1.0
817,821,1.0
826,828,1.01
825,825,1.01
819,816,1.0
818,816,1.0
817,821,1.0
818,820,1.0
838,838,1.02
842,843,1.03
832,838,1.02
845,845,1.03
846,847,1.03
866,867,1.06
866,873,1.06
869,878,1.06
878,880,1.07
878,877,1.07
896,897,1.09
932,931,1.14
927,928,1.13
927,929,1.13
919,921,1.12
921,924,1.12
934,930,1.14
953,954,1.16
978,977,1.19
957,958,1.17
954,958,1.16
970,974,1.18
977,977,1.19
977,973,1.19
971,978,1.19
991,992,1.21
994,996,1.21
982,985,1.2
974,971,1.19
983,987,1.2
1001,1004,1.22
1032,1030,1.26
1063,1061,1.3
1053,1057,1.29
1053,1055,1.29
1047,1051,1.28
1087,1081,1.33
1073,1079,1.31
1069,1072,1.31
1062,1062,1.3
1067,1072,1.3
1072,1066,1.31
1099,1102,1.34
1117,1117,1.36
1104,1104,1.35
1099,1099,1.34
1095,1099,1.34
1093,1090,1.33
1087,1089,1.33
1074,1072,1.31
1074,1072,1.31
1071,1070,1.31
1065,1063,1.3
1062,1057,1.3
1065,1061,1.3
1059,1055,1.29
1054,1058,1.29
1059,1063,1.29
1075,1085,1.31
1099,1099,1.34
1094,1091,1.34
1087,1088,1.33
1072,1072,1.31
1070,1069,1.31
1066,1066,1.3
1051,1046,1.28
1034,1037,1.26
1022,1020,1.25
1022,1030,1.25
1031,1030,1.26
1023,1028,1.25
1013,1016,1.24
1008,1007,1.23
1008,1012,1.23
1007,1005,1.23
983,987,1.2
992,991,1.21
991,991,1.21
988,988,1.21
980,982,1.2
989,992,1.21
977,985,1.19
987,979,1.21
950,950,1.16
947,944,1.16
943,942,1.15
933,938,1.14
935,939,1.14
938,934,1.15
928,929,1.13
917,917,1.12
906,908,1.11
896,898,1.09
886,891,1.08
889,892,1.09
893,892,1.09
887,892,1.08
890,882,1.09
880,881,1.07
890,885,1.09
880,882,1.07
873,880,1.07
877,877,1.07
880,883,1.07
912,912,1.11
923,927,1.13
960,962,1.17
955,950,1.17
950,950,1.16
960,957,1.17
958,954,1.17
949,944,1.16
944,947,1.15
943,943,1.15
960,943,1.17
953,950,1.16
948,949,1.16
958,956,1.17
953,951,1.16
944,945,1.15
941,942,1.15
940,941,1.15
926,923,1.13
919,919,1.12
925,924,1.13
922,919,1.13
916,917,1.12
911,910,1.11
913,914,1.11
923,925,1.13
929,929,1.13
952,950,1.16
958,951,1.17
951,948,1.16
955,953,1.17
957,954,1.17
941,943,1.15
931,935,1.14
937,935,1.14
933,930,1.14
929,931,1.13
929,927,1.13
922,922,1.13
923,918,1.13
912,914,1.11
901,895,1.1
894,895,1.09
893,891,1.09
890,891,1.09
889,894,1.09
899,899,1.1
894,894,1.09
892,889,1.09
876,878,1.07
875,870,1.07
889,892,1.09
899,896,1.1
894,897,1.09
892,892,1.09
877,890,1.07
887,891,1.08
899,889,1.1
877,878,1.07
879,874,1.07
881,871,1.08
877,877,1.07
877,870,1.07
883,883,1.08
887,875,1.08
883,882,1.08
880,881,1.07
869,864,1.06
863,867,1.05
859,860,1.05
859,860,1.05
866,863,1.06
911,914,1.11
913,917,1.11
897,927,1.1
944,947,1.15
945,955,1.15
944,946,1.15
942,944,1.15
944,946,1.15
942,934,1.15
944,943,1.15
961,966,1.17
976,975,1.19
970,959,1.18
947,950,1.16
954,955,1.16
950,948,1.16
959,960,1.17
958,957,1.17
964,963,1.18
959,959,1.17
961,960,1.17
970,967,1.18
973,982,1.19
964,976,1.18
976,980,1.19
982,987,1.2
1008,1008,1.23
1008,1005,1.23
1008,1015,1.23
1007,1003,1.23
994,1001,1.21
981,994,1.2
1013,986,1.24
983,981,1.2
1001,987,1.22
981,980,1.2
981,985,1.2
992,993,1.21
1006,1007,1.23
990,983,1.21
977,981,1.19
983,977,1.2
989,985,1.21
981,978,1.2
978,976,1.19
971,974,1.19
961,943,1.17
961,966,1.17
976,974,1.19
960,976,1.17
971,975,1.19
976,971,1.19
972,976,1.19
976,969,1.19
981,976,1.2
976,975,1.19
963,962,1.18
959,957,1.17
953,958,1.16
969,966,1.18
994,998,1.21
1011,1008,1.23
1001,997,1.22
1001,1006,1.22
992,991,1.21
978,985,1.19
992,995,1.21
983,987,1.2
987,985,1.21
985,981,1.2
977,979,1.19
1019,1039,1.24
1013,1015,1.24
1008,1008,1.23
1011,1014,1.23
1030,1033,1.26
1043,1056,1.27
1063,1065,1.3
1083,1075,1.32
1082,1088,1.32
1072,1081,1.31
1076,1075,1.31
1077,1085,1.32
1079,1078,1.32
1077,1073,1.32
1086,1086,1.33
1109,1105,1.35
1104,1101,1.35
1105,1102,1.35
1115,1110,1.36
1107,1108,1.35
1100,1104,1.34
1097,1091,1.34
1094,1098,1.34
1088,1091,1.33
1088,1089,1.33
1149,1152,1.4
1149,1147,1.4
1143,1136,1.4
1164,1136,1.42
1135,1138,1.39
1135,1136,1.39
1123,1122,1.37
1126,1124,1.37
1149,1183,1.4
1161,1166,1.42
1187,1183,1.45
1190,1191,1.45
1184,1191,1.45
1179,1175,1.44
1168,1166,1.43
1148,1145,1.4
1137,1139,1.39
1162,1163,1.42
1171,1167,1.43
1177,1170,1.44
1171,1169,1.43
1168,1167,1.43
1168,1167,1.43
1169,1169,1.43
1162,1161,1.42
1158,1159,1.41
1187,1184,1.45
1179,1183,1.44
1190,1188,1.45
1217,1200,1.49
1235,1239,1.51
1250,1254,1.53
1297,1296,1.58
1288,1283,1.57
1286,1287,1.57
1295,1279,1.58
1269,1270,1.55
1239,1260,1.51
1251,1255,1.53
1277,1275,1.56
1269,1267,1.55
1258,1264,1.54
1270,1261,1.55
1255,1253,1.53
1245,1245,1.52
1262,1278,1.54
1299,1296,1.59
1265,1296,1.54
1291,1287,1.58
1307,1313,1.6
1301,1305,1.59
1309,1301,1.6
1293,1296,1.58
1278,1280,1.56
1289,1282,1.57
1279,1275,1.56
1282,1280,1.57
1277,1280,1.56
1266,1271,1.55
1296,1301,1.58
1328,1327,1.62
1309,1311,1.6
1302,1303,1.59
1355,1358,1.65
1385,1388,1.69
1397,1397,1.71
1378,1376,1.68
1373,1371,1.68
1363,1358,1.66
1331,1328,1.63
1319,1322,1.61
1305,1310,1.59
1298,1307,1.58
1310,1310,1.6
1290,1297,1.58
1289,1291,1.57
1265,1271,1.54
1268,1278,1.55
1268,1265,1.55
1289,1291,1.57
1299,1296,1.59
1295,1296,1.58
1283,1287,1.57
1284,1287,1.57
1284,1296,1.57
1293,1296,1.58
1313,1306,1.6
1302,1307,1.59
1300,1303,1.59
1287,1291,1.57
1280,1282,1.56
1284,1278,1.57
1264,1264,1.54
1277,1261,1.56
1249,1253,1.53
1250,1251,1.53
1253,1254,1.53
1254,1249,1.53
1243,1246,1.52
1225,1235,1.5
1223,1216,1.49
1221,1223,1.49
1231,1230,1.5
1232,1232,1.5
1236,1243,1.51
1291,1294,1.58
1278,1280,1.56
1268,1263,1.55
1264,1262,1.54
1252,1258,1.53
1281,1280,1.56
1290,1294,1.58
1293,1294,1.58
1296,1290,1.58
1312,1314,1.6
1311,1310,1.6
1311,1318,1.6
1303,1306,1.59
1298,1300,1.58
1300,1302,1.59
1317,1327,1.61
1317,1317,1.61
1330,1323,1.62
1327,1328,1.62
1323,1321,1.62
1328,1328,1.62
1328,1325,1.62
1329,1328,1.62
1324,1328,1.62
1306,1310,1.59
1298,1296,1.58
1322,1305,1.61
1303,1301,1.59
1298,1297,1.58
1290,1293,1.58
1291,1286,1.58
1307,1310,1.6
1296,1296,1.58
1283,1286,1.57
1296,1296,1.58
1296,1280,1.58
1293,1287,1.58
1286,1280,1.57
1281,1278,1.56
1267,1270,1.55
1251,1261,1.53
1242,1264,1.52
1264,1267,1.54
1273,1275,1.55
1277,1271,1.56
1267,1276,1.55
1264,1264,1.54
1289,1286,1.57
1314,1314,1.6
1307,1306,1.6
1315,1327,1.61
1322,1331,1.61
1346,1319,1.64
1351,1345,1.65
1385,1386,1.69
1380,1376,1.68
1370,1369,1.67
1503,1503,1.84
1515,1510,1.85
1509,1511,1.84
1489,1491,1.82
1488,1490,1.82
1471,1466,1.8
1435,1426,1.75
1425,1427,1.74
1427,1429,1.74
1431,1427,1.75
1415,1421,1.73
1409,1405,1.72
1397,1402,1.71
1390,1392,1.7
1390,1386,1.7
1377,1374,1.68
1357,1362,1.66
1366,1377,1.67
1363,1365,1.66
1351,1351,1.65
1328,1333,1.62
1318,1313,1.61
1312,1313,1.6
1295,1301,1.58
1297,1296,1.58
1293,1294,1.58
1299,1297,1.59
1292,1294,1.58
1286,1280,1.57
1268,1267,1.55
1257,1259,1.53
1257,1253,1.53
1253,1246,1.53
1307,1315,1.6
1330,1330,1.62
1328,1334,1.62
1348,1346,1.65
1349,1351,1.65
1346,1350,1.64
1342,1343,1.64
1339,1343,1.63
1334,1335,1.63
1334,1342,1.63
1347,1343,1.64
1331,1333,1.63
1327,1326,1.62
1310,1311,1.6
1307,1302,1.6
1302,1303,1.59
1319,1305,1.61
1319,1315,1.61
1306,1303,1.59
1301,1306,1.59
1293,1286,1.58
1287,1287,1.57
1278,1279,1.56
1264,1270,1.54
1271,1271,1.55
1271,1270,1.55
1247,1248,1.52
1243,1238,1.52
1232,1230,1.5
1239,1241,1.51
1243,1239,1.52
1241,1241,1.52
1236,1235,1.51
1241,1235,1.52
1238,1239,1.51
1261,1263,1.54
1271,1255,1.55
1252,1257,1.53
1249,1248,1.53
1245,1246,1.52
1259,1260,1.54
1293,1290,1.58
1284,1280,1.57
1265,1267,1.54
1275,1273,1.56
1266,1264,1.55
1257,1254,1.53
1247,1244,1.52
1245,1246,1.52
1232,1231,1.5
1215,1217,1.48
1214,1215,1.48
1245,1247,1.52
1266,1272,1.55
1291,1292,1.58
1283,1291,1.57
1270,1267,1.55
1280,1277,1.56
1274,1273,1.56
1270,1272,1.55
1273,1277,1.55
1271,1271,1.55
1265,1266,1.54
1250,1248,1.53
1235,1234,1.51
1232,1230,1.5
1232,1231,1.5
1225,1226,1.5
1219,1220,1.49
1217,1219,1.49
1217,1213,1.49
1216,1211,1.48
1200,1203,1.47
1191,1197,1.45
1200,1200,1.47
1205,1204,1.47
1200,1200,1.47
1197,1195,1.46
1194,1191,1.46
1193,1189,1.46
1200,1199,1.47
1200,1200,1.47
1200,1219,1.47
1228,1231,1.5
1233,1239,1.51
1245,1246,1.52
1232,1232,1.5
1223,1225,1.49
1268,1264,1.55
1262,1263,1.54
1258,1254,1.54
1259,1255,1.54
1255,1255,1.53
1253,1254,1.53
1247,1242,1.52
1232,1230,1.5
1232,1229,1.5
1232,1230,1.5
1249,1250,1.53
1258,1254,1.54
1254,1249,1.53
1248,1246,1.52
1239,1243,1.51
1239,1234,1.51
1238,1244,1.51
1238,1242,1.51
1230,1232,1.5
1229,1230,1.5
1246,1245,1.52
1248,1257,1.52
1238,1238,1.51
1233,1233,1.51
1233,1238,1.51
1241,1240,1.52
1235,1239,1.51
1238,1236,1.51
1258,1254,1.54
1247,1246,1.52
1248,1243,1.52
1258,1261,1.54
1265,1265,1.54
1267,1264,1.55
1263,1264,1.54
1259,1254,1.54
1251,1250,1.53
1249,1242,1.53
1227,1226,1.5
1223,1221,1.49
1216,1217,1.48
1216,1217,1.48
1207,1204,1.47
1199,1203,1.46
1189,1185,1.45
1205,1201,1.47
1228,1232,1.5
1233,1232,1.51
1222,1229,1.49
1253,1251,1.53
1254,1251,1.53
1244,1245,1.52
1241,1234,1.52
1238,1239,1.51
1234,1232,1.51
1234,1234,1.51
1233,1232,1.51
1232,1232,1.5
1230,1230,1.5
1231,1231,1.5
1231,1232,1.5
1223,1223,1.49
1219,1222,1.49
1218,1216,1.49
1223,1221,1.49
1226,1228,1.5
1220,1219,1.49
1226,1227,1.5
1226,1223,1.5
1222,1216,1.49
1221,1223,1.49
1221,1225,1.49
1221,1220,1.49
1217,1217,1.49
1217,1213,1.49
1213,1205,1.48
1225,1228,1.5
1227,1229,1.5
1234,1232,1.51
1232,1230,1.5
1232,1235,1.5
1247,1244,1.52
1238,1235,1.51
1232,1232,1.5
1228,1222,1.5
1235,1237,1.51
1235,1230,1.51
1221,1225,1.49
1218,1216,1.49
1215,1213,1.48
1205,1210,1.47
1203,1200,1.47
1203,1208,1.47
1202,1204,1.47
1202,1200,1.47
1200,1198,1.47
1195,1194,1.46
1209,1202,1.48
1193,1197,1.46
1186,1184,1.45
1182,1185,1.44
1181,1187,1.44
1185,1179,1.45
1177,1178,1.44
1202,1203,1.47
1198,1200,1.46
1198,1199,1.46
1193,1193,1.46
1185,1186,1.45
1179,1185,1.44
1183,1187,1.44
1191,1188,1.45
1211,1209,1.48
1231,1232,1.5
1211,1218,1.48
1211,1212,1.48
1210,1214,1.48
1213,1205,1.48
1214,1211,1.48
1206,1211,1.47
1206,1207,1.47
1189,1191,1.45
1213,1207,1.48
1213,1213,1.48
1210,1210,1.48
1229,1232,1.5
1219,1226,1.49
1226,1229,1.5
1227,1226,1.5
1205,1203,1.47
1209,1203,1.48
1203,1207,1.47
1205,1206,1.47
1206,1214,1.47
1205,1203,1.47
1211,1213,1.48
1201,1210,1.47
1203,1203,1.47
1202,1200,1.47
1194,1199,1.46
1189,1191,1.45
1187,1184,1.45
1199,1202,1.46
1229,1232,1.5
1219,1217,1.49
1232,1232,1.5
1241,1243,1.52
1235,1232,1.51
1239,1235,1.51
1232,1232,1.5
1216,1218,1.48
1213,1207,1.48
1215,1218,1.48
1232,1231,1.5
1225,1221,1.5
1213,1212,1.48
1229,1230,1.5
1225,1233,1.5
1232,1237,1.5
1246,1243,1.52
1232,1231,1.5
1226,1229,1.5
1223,1229,1.49
1217,1217,1.49
1215,1217,1.48
1204,1209,1.47
1214,1211,1.48
1209,1210,1.48
1214,1215,1.48
1208,1213,1.47
1209,1213,1.48
1206,1202,1.47
1209,1207,1.48
1265,1264,1.54
1251,1256,1.53
1243,1242,1.52
1233,1233,1.51
1225,1226,1.5
1226,1219,1.5
1218,1216,1.49
1209,1206,1.48
1213,1213,1.48
1205,1210,1.47
1221,1222,1.49
1223,1220,1.49
1219,1216,1.49
1243,1218,1.52
1211,1212,1.48
1223,1225,1.49
1232,1232,1.5
1227,1227,1.5
1219,1217,1.49
1217,1215,1.49
1209,1205,1.48
1206,1202,1.47
1215,1210,1.48
1209,1211,1.48
1229,1232,1.5
1259,1269,1.54
1273,1271,1.55
1305,1296,1.59
1305,1313,1.59
1329,1328,1.62
1322,1315,1.61
1313,1315,1.6
1296,1296,1.58
1314,1311,1.6
1324,1317,1.62
1325,1326,1.62
1327,1323,1.62
1316,1323,1.61
1327,1325,1.62
1323,1323,1.62
1311,1315,1.6
1310,1307,1.6
1299,1296,1.59
1294,1296,1.58
1281,1281,1.56
1277,1276,1.56
1266,1270,1.55
1264,1261,1.54
1261,1259,1.54
1254,1252,1.53
1258,1259,1.54
1265,1267,1.54
1269,1270,1.55
1265,1267,1.54
1264,1271,1.54
1263,1261,1.54
1267,1270,1.55
1267,1265,1.55
1270,1271,1.55
1269,1273,1.55
1265,1265,1.54
1286,1282,1.57
1287,1285,1.57
1259,1263,1.54
1264,1258,1.54
1262,1258,1.54
1253,1254,1.53
1242,1237,1.52
1232,1234,1.5
1232,1237,1.5
1216,1219,1.48
1211,1206,1.48
1205,1207,1.47
1207,1207,1.47
1200,1210,1.47
1210,1212,1.48
1231,1227,1.5
1227,1222,1.5
1213,1209,1.48
1200,1201,1.47
1190,1196,1.45
1190,1189,1.45
1181,1184,1.44
1180,1175,1.44
1172,1171,1.43
1167,1168,1.42
1198,1200,1.46
1227,1232,1.5
1232,1218,1.5
1222,1222,1.49
1226,1231,1.5
1241,1239,1.52
1241,1235,1.52
1254,1254,1.53
1273,1269,1.55
1272,1270,1.55
1264,1259,1.54
1259,1255,1.54
1251,1253,1.53
1253,1257,1.53
1248,1247,1.52
1235,1234,1.51
1230,1228,1.5
1232,1232,1.5
1230,1232,1.5
1234,1232,1.51
1239,1242,1.51
1254,1259,1.53
1271,1271,1.55
1267,1266,1.55
1264,1263,1.54
1259,1257,1.54
1264,1264,1.54
1258,1263,1.54
1264,1264,1.54
1274,1276,1.56
1264,1264,1.54
1260,1255,1.54
1248,1243,1.52
1246,1238,1.52
1237,1235,1.51
1227,1225,1.5
1233,1232,1.51
1220,1221,1.49
1223,1222,1.49
1217,1220,1.49
1213,1218,1.48
1214,1211,1.48
1219,1219,1.49
1233,1237,1.51
1221,1223,1.49
1207,1211,1.47
1200,1200,1.47
1217,1217,1.49
1216,1213,1.48
1207,1205,1.47
1210,1210,1.48
1213,1210,1.48
1201,1200,1.47
1194,1189,1.46
1174,1179,1.43
1185,1187,1.45
1183,1188,1.44
1181,1182,1.44
1175,1176,1.43
1168,1168,1.43
1155,1157,1.41
1150,1151,1.4
1157,1158,1.41
1150,1151,1.4
1149,1150,1.4
1148,1143,1.4
1151,1147,1.41
1149,1153,1.4
1159,1162,1.42
1176,1177,1.44
1178,1186,1.44
1197,1200,1.46
1181,1199,1.44
1198,1200,1.46
1203,1203,1.47
1221,1219,1.49
1226,1229,1.5
1243,1246,1.52
1244,1245,1.52
1247,1249,1.52
1239,1238,1.51
1241,1233,1.52
1232,1232,1.5
1210,1207,1.48
1200,1201,1.47
1198,1200,1.46
1200,1199,1.47
1195,1193,1.46
1197,1188,1.46
1181,1179,1.44
1179,1175,1.44
1169,1174,1.43
1171,1170,1.43
1175,1177,1.43
1179,1173,1.44
1180,1182,1.44
1171,1169,1.43
1205,1212,1.47
1213,1207,1.48
1192,1191,1.46
1188,1187,1.45
1186,1186,1.45
1184,1187,1.45
1182,1182,1.44
1181,1179,1.44
1181,1182,1.44
1174,1170,1.43
1170,1168,1.43
1171,1169,1.43
1166,1168,1.42
1166,1167,1.42
1159,1162,1.42
1156,1154,1.41
1157,1161,1.41
1140,1145,1.39
1127,1154,1.38
1156,1157,1.41
1168,1171,1.43
1187,1193,1.45
1199,1191,1.46
1198,1195,1.46
1200,1203,1.47
1200,1199,1.47
1247,1241,1.52
1242,1241,1.52
1244,1239,1.52
1232,1234,1.5
1223,1227,1.49
1218,1223,1.49
1215,1214,1.48
1197,1187,1.46
1204,1205,1.47
1201,1207,1.47
1204,1206,1.47
1206,1201,1.47
1219,1217,1.49
1249,1245,1.53
1263,1264,1.54
1290,1291,1.58
1294,1290,1.58
1291,1293,1.58
1289,1286,1.57
1296,1301,1.58
1296,1296,1.58
1286,1279,1.57
1273,1271,1.55
1287,1288,1.57
1280,1283,1.56
1283,1281,1.57
1290,1285,1.58
1300,1297,1.59
1296,1291,1.58
1281,1282,1.56
1289,1291,1.57
1299,1286,1.59
1286,1287,1.57
1278,1274,1.56
1273,1275,1.55
1295,1294,1.58
1306,1306,1.59
