AnalogValue,Density,Amplitude
881,887,1.08
909,903,1.11
889,890,1.09
898,903,1.1
901,898,1.1
891,894,1.09
880,880,1.07
869,875,1.06
873,874,1.07
868,870,1.06
862,864,1.05
853,860,1.04
855,867,1.04
851,853,1.04
848,848,1.04
852,854,1.04
849,855,1.04
850,847,1.04
846,839,1.03
844,842,1.03
834,839,1.02
831,826,1.01
830,815,1.01
821,826,1.0
825,821,1.01
816,816,1.0
813,816,0.99
811,812,0.99
800,802,0.98
800,804,0.98
802,805,0.98
800,803,0.98
792,803,0.97
801,797,0.98
801,797,0.98
799,788,0.98
797,791,0.97
784,765,0.96
777,765,0.95
775,774,0.95
770,768,0.94
763,769,0.93
770,771,0.94
769,763,0.94
769,766,0.94
759,758,0.93
752,752,0.92
751,752,0.92
751,752,0.92
749,743,0.91
743,739,0.91
737,736,0.9
736,738,0.9
733,732,0.89
733,721,0.89
722,723,0.88
725,720,0.89
720,721,0.88
724,727,0.88
734,734,0.9
738,736,0.9
734,738,0.9
737,736,0.9
733,734,0.89
731,727,0.89
731,726,0.89
724,722,0.88
720,719,0.88
714,707,0.87
720,727,0.88
703,716,0.86
707,709,0.86
699,703,0.85
694,693,0.85
694,693,0.85
710,688,0.87
691,688,0.84
690,688,0.84
683,678,0.83
685,678,0.84
683,679,0.83
671,663,0.82
657,658,0.8
649,657,0.79
656,658,0.8
656,656,0.8
656,656,0.8
656,656,0.8
654,656,0.8
653,651,0.8
643,637,0.79
631,631,0.77
636,643,0.78
631,635,0.77
638,635,0.78
639,636,0.78
635,630,0.78
635,634,0.78
634,626,0.77
631,628,0.77
629,626,0.77
627,625,0.77
630,626,0.77
630,625,0.77
653,630,0.8
629,630,0.77
621,625,0.76
621,623,0.76
606,610,0.74
606,614,0.74
619,610,0.76
619,609,0.76
597,614,0.73
611,624,0.75
623,623,0.76
615,622,0.75
620,621,0.76
622,624,0.76
612,626,0.75
626,621,0.76
619,622,0.76
618,624,0.75
622,624,0.76
614,621,0.75
609,613,0.74
608,603,0.74
603,607,0.74
609,604,0.74
613,608,0.75
612,609,0.75
609,617,0.74
607,618,0.74
624,620,0.76
624,626,0.76
612,611,0.75
614,613,0.75
619,618,0.76
619,623,0.76
611,623,0.75
623,621,0.76
619,617,0.76
624,620,0.76
614,609,0.75
603,601,0.74
606,598,0.74
605,603,0.74
614,607,0.75
611,610,0.75
611,609,0.75
614,619,0.75
615,614,0.75
618,615,0.75
611,610,0.75
611,614,0.75
613,618,0.75
614,613,0.75
607,605,0.74
624,620,0.76
615,620,0.75
623,622,0.76
618,618,0.75
601,615,0.73
611,624,0.75
614,614,0.75
610,635,0.74
613,618,0.75
617,617,0.75
612,617,0.75
619,617,0.76
608,609,0.74
611,611,0.75
611,608,0.75
608,609,0.74
612,611,0.75
625,627,0.76
628,624,0.77
629,630,0.77
631,626,0.77
627,627,0.77
625,625,0.76
625,630,0.76
626,632,0.76
639,644,0.78
656,656,0.8
654,654,0.8
643,653,0.79
629,647,0.77
641,639,0.78
641,639,0.78
645,641,0.79
645,641,0.79
647,647,0.79
656,656,0.8
655,659,0.8
656,656,0.8
654,646,0.8
640,638,0.78
640,638,0.78
634,636,0.77
643,639,0.79
643,640,0.79
641,639,0.78
643,645,0.79
645,640,0.79
639,659,0.78
634,634,0.77
639,635,0.78
646,642,0.79
649,646,0.79
653,651,0.8
645,647,0.79
650,648,0.79
646,656,0.79
641,642,0.78
629,627,0.77
631,629,0.77
640,638,0.78
637,635,0.78
640,635,0.78
638,637,0.78
640,635,0.78
647,654,0.79
654,651,0.8
642,645,0.78
641,643,0.78
640,641,0.78
640,640,0.78
656,654,0.8
661,665,0.81
660,666,0.81
669,677,0.82
673,671,0.82
682,671,0.83
676,678,0.83
682,683,0.83
685,682,0.84
685,684,0.84
688,687,0.84
689,688,0.84
688,686,0.84
679,679,0.83
682,682,0.83
684,688,0.84
688,684,0.84
688,688,0.84
688,685,0.84
689,689,0.84
694,689,0.85
688,686,0.84
683,688,0.83
693,690,0.85
702,691,0.86
701,690,0.86
694,695,0.85
699,695,0.85
705,701,0.86
705,704,0.86
695,695,0.85
688,691,0.84
693,694,0.85
690,692,0.84
694,694,0.85
691,694,0.84
699,699,0.85
707,704,0.86
710,711,0.87
707,710,0.86
704,702,0.86
699,699,0.85
703,705,0.86
704,705,0.86
701,701,0.86
705,702,0.86
702,703,0.86
698,706,0.85
703,704,0.86
706,702,0.86
704,701,0.86
707,707,0.86
718,714,0.88
726,730,0.89
730,733,0.89
727,733,0.89
724,726,0.88
720,720,0.88
711,713,0.87
719,718,0.88
715,718,0.87
718,720,0.88
720,719,0.88
719,719,0.88
720,726,0.88
722,722,0.88
719,720,0.88
720,720,0.88
730,730,0.89
733,730,0.89
731,727,0.89
732,734,0.89
734,735,0.9
734,729,0.9
729,727,0.89
720,720,0.88
722,722,0.88
721,721,0.88
720,720,0.88
720,720,0.88
723,725,0.88
721,723,0.88
725,729,0.89
720,721,0.88
717,719,0.88
719,720,0.88
719,718,0.88
717,720,0.88
720,722,0.88
730,731,0.89
731,727,0.89
726,727,0.89
720,718,0.88
718,719,0.88
720,718,0.88
725,725,0.89
731,733,0.89
738,735,0.9
750,733,0.92
747,749,0.91
752,752,0.92
744,746,0.91
750,746,0.92
747,746,0.91
749,747,0.91
751,752,0.92
752,752,0.92
751,751,0.92
752,749,0.92
756,762,0.92
761,755,0.93
759,759,0.93
755,758,0.92
773,777,0.94
775,775,0.95
782,777,0.95
784,779,0.96
785,784,0.96
783,784,0.96
785,784,0.96
790,789,0.96
784,789,0.96
786,786,0.96
789,788,0.96
785,784,0.96
794,795,0.97
791,797,0.97
787,800,0.96
799,798,0.98
798,800,0.97
803,801,0.98
797,800,0.97
803,799,0.98
802,802,0.98
799,801,0.98
805,807,0.98
810,810,0.99
821,822,1.0
817,819,1.0
817,816,1.0
818,818,1.0
829,825,1.01
822,826,1.0
830,827,1.01
827,823,1.01
813,812,0.99
815,825,1.0
816,814,1.0
817,815,1.0
815,816,1.0
816,817,1.0
817,818,1.0
820,816,1.0
811,815,0.99
807,804,0.99
810,811,0.99
815,813,1.0
816,817,1.0
816,815,1.0
815,816,1.0
816,816,1.0
816,811,1.0
805,801,0.98
800,803,0.98
805,805,0.98
806,802,0.98
803,798,0.98
803,806,0.98
807,804,0.99
806,810,0.98
815,809,1.0
809,812,0.99
836,837,1.02
845,843,1.03
846,847,1.03
843,839,1.03
843,841,1.03
847,847,1.03
848,847,1.04
845,841,1.03
834,833,1.02
821,838,1.0
837,837,1.02
835,836,1.02
842,846,1.03
843,848,1.03
851,848,1.04
850,853,1.04
868,854,1.06
871,867,1.06
875,877,1.07
874,874,1.07
871,873,1.06
872,871,1.06
874,874,1.07
875,878,1.07
877,879,1.07
869,871,1.06
862,861,1.05
867,865,1.06
870,873,1.06
875,877,1.07
880,878,1.07
878,878,1.07
871,874,1.06
874,871,1.07
871,878,1.06
864,859,1.05
865,866,1.06
863,855,1.05
864,859,1.05
859,862,1.05
864,865,1.05
862,860,1.05
854,855,1.04
862,854,1.05
850,851,1.04
857,859,1.05
857,853,1.05
859,854,1.05
854,853,1.04
849,854,1.04
852,851,1.04
851,848,1.04
854,854,1.04
862,859,1.05
857,859,1.05
853,859,1.04
849,854,1.04
855,859,1.04
865,863,1.06
859,863,1.05
862,861,1.05
851,848,1.04
848,846,1.04
847,846,1.03
848,848,1.04
847,845,1.03
839,848,1.02
845,846,1.03
848,848,1.04
850,849,1.04
854,850,1.04
849,849,1.04
853,851,1.04
854,850,1.04
874,865,1.07
871,870,1.06
869,873,1.06
870,871,1.06
868,871,1.06
862,859,1.05
857,850,1.05
854,859,1.04
859,853,1.05
860,861,1.05
855,860,1.04
859,857,1.05
855,854,1.04
860,852,1.05
846,845,1.03
856,853,1.05
857,855,1.05
852,851,1.04
854,851,1.04
848,853,1.04
852,849,1.04
848,848,1.04
848,848,1.04
836,842,1.02
833,836,1.02
833,834,1.02
837,837,1.02
1421,1424,1.74
1456,1452,1.78
1455,1456,1.78
1446,1441,1.77
1421,1422,1.74
1443,1441,1.76
1467,1468,1.79
1503,1497,1.84
1487,1486,1.82
1472,1472,1.8
1475,1472,1.8
1456,1458,1.78
1447,1450,1.77
1424,1423,1.74
1411,1411,1.72
1420,1426,1.73
1489,1493,1.82
1506,1511,1.84
1494,1499,1.82
1517,1503,1.85
1493,1499,1.82
1519,1519,1.85
1545,1545,1.89
1511,1510,1.84
1523,1526,1.86
1521,1520,1.86
1511,1511,1.84
1492,1490,1.82
1477,1477,1.8
1475,1472,1.8
1523,1523,1.86
1569,1578,1.92
1580,1579,1.93
1552,1546,1.89
1535,1535,1.87
1525,1527,1.86
1562,1569,1.91
1652,1651,2.02
1635,1642,2.0
1617,1616,1.97
1624,1622,1.98
1634,1640,2.0
1602,1614,1.96
1600,1599,1.95
1584,1586,1.93
1562,1563,1.91
1534,1533,1.87
1523,1523,1.86
1535,1525,1.87
1523,1524,1.86
1507,1498,1.84
1517,1515,1.85
1521,1523,1.86
1579,1584,1.93
1554,1565,1.9
1585,1590,1.94
1587,1584,1.94
1591,1595,1.94
1584,1584,1.93
1579,1584,1.93
1557,1557,1.9
1586,1590,1.94
1623,1620,1.98
1631,1624,1.99
1616,1614,1.97
1604,1600,1.96
1643,1643,2.01
1640,1641,2.0
1648,1648,2.01
1651,1647,2.02
1643,1649,2.01
1632,1639,1.99
1620,1639,1.98
1648,1648,2.01
1649,1648,2.01
1632,1635,1.99
1590,1586,1.94
1573,1575,1.92
1569,1562,1.92
1573,1575,1.92
1542,1552,1.88
1547,1531,1.89
1584,1584,1.93
1610,1612,1.97
1616,1616,1.97
1675,1677,2.05
1680,1686,2.05
1681,1691,2.05
1672,1673,2.04
1654,1650,2.02
1621,1626,1.98
1630,1633,1.99
1664,1663,2.03
1641,1664,2.0
1627,1630,1.99
1607,1608,1.96
1584,1583,1.93
1601,1601,1.95
1612,1615,1.97
1622,1620,1.98
1618,1617,1.98
1616,1616,1.97
1634,1626,2.0
1616,1616,1.97
1607,1611,1.96
1589,1589,1.94
1614,1610,1.97
1651,1653,2.02
1653,1648,2.02
1616,1616,1.97
1610,1609,1.97
1601,1602,1.95
1649,1659,2.01
1641,1642,2.0
1629,1617,1.99
1605,1602,1.96
1569,1565,1.92
1552,1553,1.89
1562,1557,1.91
1565,1564,1.91
1559,1558,1.9
1557,1553,1.9
1559,1567,1.9
1589,1584,1.94
1583,1583,1.93
1562,1565,1.91
1535,1552,1.87
1535,1542,1.87
1554,1556,1.9
1573,1566,1.92
1568,1562,1.91
1559,1559,1.9
1559,1561,1.9
1565,1562,1.91
1575,1572,1.92
1559,1557,1.9
1521,1520,1.86
1504,1501,1.84
1526,1525,1.86
1505,1503,1.84
1498,1488,1.83
1475,1479,1.8
1475,1472,1.8
1477,1481,1.8
1511,1518,1.84
1497,1494,1.83
1505,1513,1.84
1530,1525,1.87
1519,1512,1.85
1498,1475,1.83
1497,1494,1.83
1487,1484,1.82
1474,1471,1.8
1479,1479,1.81
1483,1488,1.81
1467,1467,1.79
1456,1442,1.78
1454,1456,1.78
1472,1481,1.8
1463,1457,1.79
1469,1441,1.79
1447,1446,1.77
1435,1431,1.75
1424,1422,1.74
1412,1411,1.72
1411,1419,1.72
1429,1426,1.74
1411,1413,1.72
1409,1406,1.72
1428,1429,1.74
1419,1423,1.73
1424,1418,1.74
1409,1403,1.72
1401,1398,1.71
1389,1391,1.7
1392,1392,1.7
1371,1370,1.67
1362,1363,1.66
1386,1389,1.69
1392,1390,1.7
1374,1371,1.68
1360,1359,1.66
1358,1357,1.66
1393,1398,1.7
1423,1422,1.74
1410,1410,1.72
1394,1392,1.7
1385,1383,1.69
1375,1369,1.68
1351,1355,1.65
1366,1363,1.67
1366,1365,1.67
1344,1338,1.64
1346,1335,1.64
1357,1344,1.66
1358,1350,1.66
1331,1328,1.63
1339,1318,1.63
1309,1302,1.6
1307,1307,1.6
1295,1298,1.58
1294,1293,1.58
1263,1269,1.54
1269,1264,1.55
1264,1269,1.54
1287,1287,1.57
1312,1312,1.6
1311,1303,1.6
1317,1296,1.61
1275,1267,1.56
1267,1283,1.55
1264,1257,1.54
1239,1246,1.51
1236,1237,1.51
1232,1231,1.5
1216,1217,1.48
1200,1200,1.47
1195,1195,1.46
1178,1186,1.44
1168,1169,1.43
1154,1157,1.41
1169,1153,1.43
1126,1142,1.37
1141,1136,1.39
1117,1127,1.36
1120,1110,1.37
1095,1104,1.34
1104,1093,1.35
1086,1093,1.33
1117,1104,1.36
1103,1098,1.35
1102,1092,1.35
1086,1090,1.33
1098,1096,1.34
1099,1093,1.34
1103,1088,1.35
1067,1067,1.3
1056,1061,1.29
1057,1045,1.29
1045,1042,1.28
1040,1041,1.27
1034,1032,1.26
1008,1013,1.23
998,999,1.22
987,987,1.21
981,983,1.2
976,976,1.19
960,957,1.17
959,959,1.17
956,979,1.17
953,949,1.16
946,937,1.16
966,970,1.18
966,966,1.18
960,965,1.17
969,965,1.18
967,967,1.18
962,961,1.17
950,953,1.16
960,962,1.17
961,959,1.17
980,963,1.2
976,981,1.19
979,977,1.2
973,979,1.19
976,977,1.19
972,974,1.19
976,976,1.19
973,972,1.19
960,960,1.17
953,954,1.16
927,921,1.13
917,916,1.12
907,915,1.11
912,912,1.11
910,922,1.11
913,912,1.11
911,910,1.11
908,906,1.11
891,890,1.09
893,896,1.09
889,892,1.09
881,880,1.08
912,915,1.11
927,931,1.13
937,930,1.14
914,912,1.12
905,917,1.11
902,901,1.1
893,898,1.09
885,880,1.08
883,884,1.08
882,884,1.08
880,879,1.07
910,912,1.11
925,924,1.13
923,918,1.13
927,917,1.13
945,947,1.15
951,949,1.16
952,944,1.16
950,958,1.16
942,944,1.15
947,952,1.16
951,956,1.16
951,951,1.16
939,938,1.15
934,933,1.14
943,937,1.15
963,970,1.18
976,975,1.19
983,983,1.2
977,975,1.19
978,985,1.19
977,973,1.19
965,969,1.18
965,961,1.18
961,950,1.17
944,946,1.15
938,939,1.15
941,944,1.15
932,934,1.14
954,954,1.16
947,944,1.16
927,927,1.13
938,934,1.15
942,930,1.15
927,933,1.13
925,929,1.13
921,925,1.12
920,916,1.12
905,918,1.11
907,912,1.11
912,910,1.11
907,909,1.11
899,903,1.1
896,897,1.09
892,885,1.09
882,882,1.08
885,881,1.08
878,880,1.07
858,861,1.05
851,851,1.04
848,847,1.04
844,836,1.03
843,845,1.03
854,855,1.04
863,853,1.05
858,858,1.05
847,847,1.03
839,839,1.02
833,832,1.02
832,833,1.02
834,834,1.02
832,839,1.02
834,837,1.02
835,839,1.02
834,832,1.02
832,826,1.02
842,838,1.03
837,835,1.02
832,839,1.02
839,835,1.02
835,826,1.02
833,829,1.02
826,828,1.01
819,818,1.0
815,815,1.0
806,811,0.98
812,810,0.99
814,810,0.99
820,823,1.0
820,821,1.0
848,848,1.04
852,849,1.04
878,877,1.07
869,870,1.06
880,880,1.07
873,869,1.07
867,874,1.06
865,861,1.06
861,861,1.05
865,862,1.06
854,858,1.04
855,854,1.04
848,839,1.04
845,840,1.03
850,852,1.04
843,845,1.03
843,847,1.03
848,849,1.04
848,846,1.04
837,834,1.02
829,829,1.01
848,850,1.04
855,854,1.04
855,850,1.04
848,851,1.04
853,849,1.04
857,857,1.05
859,860,1.05
859,858,1.05
874,869,1.07
863,865,1.05
888,890,1.08
911,913,1.11
907,910,1.11
912,913,1.11
917,912,1.12
911,907,1.11
912,909,1.11
897,897,1.1
891,895,1.09
890,894,1.09
894,890,1.09
887,898,1.08
898,890,1.1
899,898,1.1
896,896,1.09
896,894,1.09
882,884,1.08
880,880,1.07
882,880,1.08
880,882,1.07
878,876,1.07
877,880,1.07
879,880,1.07
883,880,1.08
875,869,1.07
859,857,1.05
862,859,1.05
855,857,1.04
855,843,1.04
859,860,1.05
849,853,1.04
854,852,1.04
860,855,1.05
864,864,1.05
874,869,1.07
897,896,1.1
892,887,1.09
907,905,1.11
907,906,1.11
910,911,1.11
912,906,1.11
911,910,1.11
912,912,1.11
904,896,1.1
897,894,1.1
893,896,1.09
889,890,1.09
925,924,1.13
929,931,1.13
937,935,1.14
931,942,1.14
938,939,1.15
950,947,1.16
942,948,1.15
944,945,1.15
944,944,1.15
949,945,1.16
949,933,1.16
944,944,1.15
949,949,1.16
955,954,1.17
954,957,1.16
950,949,1.16
955,956,1.17
944,949,1.15
944,943,1.15
944,942,1.15
948,946,1.16
946,946,1.16
934,934,1.14
943,941,1.15
943,944,1.15
941,939,1.15
941,938,1.15
933,937,1.14
936,933,1.14
941,935,1.15
971,976,1.19
1034,1033,1.26
1037,1039,1.27
1048,1040,1.28
1047,1046,1.28
1047,1055,1.28
1041,1054,1.27
1051,1048,1.28
1040,1040,1.27
1021,1023,1.25
1014,1013,1.24
1032,1035,1.26
1028,1037,1.26
1030,1035,1.26
1020,1022,1.25
1028,1019,1.26
1022,1028,1.25
1036,1039,1.26
1035,1033,1.26
1033,1037,1.26
1040,1033,1.27
1035,1038,1.26
1045,1049,1.28
1051,1050,1.28
1061,1065,1.3
1063,1061,1.3
1058,1056,1.29
1049,1043,1.28
1041,1042,1.27
1052,1049,1.28
1045,1043,1.28
1057,1061,1.29
1050,1046,1.28
1057,1057,1.29
1045,1045,1.28
1046,1040,1.28
1041,1040,1.27
1030,1035,1.26
1036,1040,1.26
1040,1040,1.27
1063,1062,1.3
1062,1061,1.3
1065,1065,1.3
1066,1065,1.3
1074,1073,1.31
1079,1081,1.32
1081,1079,1.32
1072,1074,1.31
1069,1072,1.31
1082,1087,1.32
1087,1085,1.33
1071,1075,1.31
1073,1072,1.31
1063,1071,1.3
1077,1076,1.32
1078,1077,1.32
1083,1082,1.32
1086,1088,1.33
1091,1089,1.33
1110,1099,1.36
1101,1095,1.34
1100,1097,1.34
1109,1108,1.35
1118,1110,1.37
1110,1113,1.36
1105,1109,1.35
1111,1106,1.36
1111,1111,1.36
1113,1108,1.36
1109,1105,1.35
1099,1102,1.34
1102,1099,1.35
1104,1106,1.35
1105,1105,1.35
1099,1099,1.34
1103,1099,1.35
1093,1098,1.33
1072,1072,1.31
1058,1061,1.29
1061,1056,1.3
1066,1069,1.3
1072,1071,1.31
1071,1070,1.31
1073,1071,1.31
1056,1071,1.29
1073,1077,1.31
1078,1078,1.32
1069,1070,1.31
1070,1067,1.31
1072,1072,1.31
1070,1070,1.31
1062,1065,1.3
1059,1056,1.29
1043,1043,1.27
1045,1041,1.28
1053,1058,1.29
1057,1058,1.29
1099,1097,1.34
1104,1101,1.35
1095,1100,1.34
1086,1090,1.33
1106,1104,1.35
1110,1110,1.36
1107,1110,1.35
1106,1105,1.35
1103,1098,1.35
1096,1098,1.34
1088,1087,1.33
1072,1072,1.31
1067,1067,1.3
1074,1067,1.31
1064,1069,1.3
1063,1058,1.3
1059,1061,1.29
1061,1072,1.3
1051,1049,1.28
1040,1037,1.27
1029,1021,1.26
1019,1021,1.24
1017,1014,1.24
1023,1017,1.25
1018,1013,1.24
1014,1014,1.24
1013,1016,1.24
1009,1007,1.23
1003,1008,1.22
1008,1005,1.23
1019,1017,1.24
1040,1040,1.27
1045,1040,1.28
1040,1040,1.27
1029,1031,1.26
1041,1038,1.27
1037,1035,1.27
1040,1038,1.27
1039,1037,1.27
1040,1040,1.27
1034,1031,1.26
1014,1017,1.24
1008,1009,1.23
999,1006,1.22
1013,1015,1.24
1014,1014,1.24
1008,1007,1.23
1009,1008,1.23
1015,1009,1.24
1034,1033,1.26
1022,1029,1.25
1034,1031,1.26
1034,1023,1.26
1019,1015,1.24
1014,1013,1.24
1019,1015,1.24
999,1001,1.22
986,989,1.2
981,982,1.2
985,990,1.2
990,983,1.21
981,984,1.2
983,988,1.2
999,997,1.22
999,1003,1.22
994,997,1.21
989,989,1.21
987,987,1.21
982,987,1.2
976,981,1.19
981,981,1.2
971,976,1.19
976,973,1.19
971,971,1.19
965,960,1.18
947,954,1.16
949,944,1.16
949,947,1.16
958,958,1.17
958,959,1.17
961,959,1.17
961,955,1.17
966,962,1.18
961,960,1.17
966,972,1.18
966,972,1.18
961,961,1.17
961,959,1.17
962,967,1.17
960,956,1.17
950,957,1.16
969,968,1.18
1007,1008,1.23
1003,1006,1.22
1049,1050,1.28
1058,1054,1.29
1054,1055,1.29
1052,1049,1.28
1046,1049,1.28
1067,1063,1.3
1058,1059,1.29
1053,1055,1.29
1054,1053,1.29
1045,1044,1.28
1042,1040,1.27
1041,1039,1.27
1047,1041,1.28
1067,1063,1.3
1072,1072,1.31
1067,1063,1.3
1057,1062,1.29
1059,1061,1.29
1063,1066,1.3
1055,1057,1.29
1050,1056,1.28
1055,1054,1.29
1067,1070,1.3
1067,1059,1.3
1062,1067,1.3
1072,1073,1.31
1075,1082,1.31
1077,1075,1.32
1072,1067,1.31
1047,1055,1.28
1054,1051,1.29
1052,1055,1.28
1047,1053,1.28
1042,1045,1.27
1042,1049,1.27
1050,1053,1.28
1040,1040,1.27
1031,1035,1.26
1035,1039,1.26
1036,1039,1.26
1040,1040,1.27
1043,1045,1.27
1040,1040,1.27
1040,1038,1.27
1019,1028,1.24
1022,1019,1.25
1022,1023,1.25
1021,1022,1.25
1028,1021,1.26
1018,1018,1.24
1023,1012,1.25
1017,1015,1.24
1009,1018,1.23
1013,1015,1.24
1034,1023,1.26
1023,1029,1.25
1035,1035,1.26
1034,1038,1.26
1031,1029,1.26
1007,1007,1.23
1003,1003,1.22
1003,1005,1.22
1007,999,1.23
997,994,1.22
1002,997,1.22
1003,1002,1.22
1008,1006,1.23
988,993,1.21
992,986,1.21
994,998,1.21
998,994,1.22
996,998,1.22
997,993,1.22
991,987,1.21
987,983,1.21
993,993,1.21
993,989,1.21
989,995,1.21
990,994,1.21
995,990,1.21
999,996,1.22
1015,1014,1.24
1023,1020,1.25
1019,1011,1.24
1005,1006,1.23
1005,1001,1.23
1003,1005,1.22
1008,1014,1.23
1009,1008,1.23
1009,1008,1.23
1008,1009,1.23
1006,1008,1.23
996,991,1.22
1011,1012,1.23
1008,1008,1.23
1035,1030,1.26
1042,1042,1.27
1040,1045,1.27
1040,1044,1.27
1038,1036,1.27
1023,1030,1.25
1019,1030,1.24
1030,1023,1.26
1034,1033,1.26
1038,1039,1.27
1037,1023,1.27
1031,1031,1.26
1039,1036,1.27
1023,1021,1.25
1047,1055,1.28
1075,1072,1.31
1069,1067,1.31
1067,1072,1.3
1069,1072,1.31
1094,1094,1.34
1087,1088,1.33
1086,1085,1.33
1090,1088,1.33
1088,1088,1.33
1085,1086,1.32
1085,1086,1.32
1102,1097,1.35
1091,1088,1.33
1078,1085,1.32
1095,1094,1.34
1093,1090,1.33
1091,1092,1.33
1087,1087,1.33
1101,1093,1.34
1093,1094,1.33
1092,1087,1.33
1089,1089,1.33
1088,1082,1.33
1085,1088,1.32
1104,1104,1.35
1131,1126,1.38
1123,1123,1.37
1123,1119,1.37
1127,1123,1.38
1134,1128,1.38
1139,1144,1.39
1131,1136,1.38
1139,1142,1.39
1139,1142,1.39
1141,1145,1.39
1136,1138,1.39
1125,1127,1.37
1131,1131,1.38
1129,1130,1.38
1127,1125,1.38
1136,1138,1.39
1134,1136,1.38
1136,1134,1.39
1124,1130,1.37
1117,1118,1.36
1120,1119,1.37
1120,1118,1.37
1119,1111,1.37
1108,1114,1.35
1106,1107,1.35
1104,1108,1.35
1119,1118,1.37
1117,1117,1.36
1116,1119,1.36
1106,1104,1.35
1108,1107,1.35
1101,1097,1.34
1094,1100,1.34
1089,1099,1.33
1102,1104,1.35
1100,1104,1.34
1104,1104,1.35
1099,1098,1.34
1099,1104,1.34
1094,1095,1.34
1089,1097,1.33
1074,1075,1.31
1069,1072,1.31
1072,1072,1.31
1070,1070,1.31
1066,1066,1.3
1072,1070,1.31
1068,1062,1.3
1062,1066,1.3
1050,1047,1.28
1045,1040,1.28
1040,1041,1.27
1040,1040,1.27
1050,1047,1.28
1042,1041,1.27
1045,1043,1.28
1039,1036,1.27
1038,1039,1.27
1034,1040,1.26
1040,1039,1.27
1040,1040,1.27
1040,1040,1.27
1040,1037,1.27
1040,1040,1.27
1030,1022,1.26
1033,1034,1.26
1043,1045,1.27
1042,1045,1.27
1042,1040,1.27
1044,1041,1.27
1040,1042,1.27
1044,1041,1.27
1047,1045,1.28
1047,1049,1.28
1042,1041,1.27
1040,1040,1.27
1047,1045,1.28
1053,1049,1.29
1057,1055,1.29
1041,1043,1.27
1037,1038,1.27
1039,1040,1.27
1040,1038,1.27
1036,1035,1.26
1040,1040,1.27
1040,1039,1.27
1040,1040,1.27
1041,1045,1.27
1041,1044,1.27
1047,1047,1.28
1048,1046,1.28
1054,1054,1.29
1061,1062,1.3
1104,1104,1.35
1127,1129,1.38
1129,1126,1.38
1127,1130,1.38
1126,1126,1.37
1136,1131,1.39
1133,1127,1.38
1136,1137,1.39
1137,1137,1.39
1168,1173,1.43
1171,1177,1.43
1168,1168,1.43
1168,1170,1.43
1164,1162,1.42
1163,1163,1.42
1152,1153,1.41
1145,1150,1.4
1138,1142,1.39
1140,1139,1.39
1135,1137,1.39
1136,1136,1.39
1136,1129,1.39
1129,1131,1.38
1127,1129,1.38
1126,1124,1.37
1136,1134,1.39
1136,1136,1.39
1142,1143,1.39
1143,1141,1.4
1136,1137,1.39
1141,1138,1.39
1152,1150,1.41
1131,1131,1.38
1126,1123,1.37
1121,1116,1.37
1126,1129,1.37
1115,1117,1.36
1111,1111,1.36
1110,1110,1.36
1102,1095,1.35
1093,1100,1.33
1089,1092,1.33
1103,1099,1.35
1103,1101,1.35
1095,1094,1.34
1101,1102,1.34
1094,1097,1.34
1085,1090,1.32
1079,1079,1.32
1072,1067,1.31
1073,1072,1.31
1068,1065,1.3
1074,1078,1.31
1072,1074,1.31
1072,1073,1.31
1059,1062,1.29
1065,1069,1.3
1072,1071,1.31
1072,1072,1.31
1071,1065,1.31
1073,1073,1.31
1087,1094,1.33
1072,1072,1.31
1059,1059,1.29
1061,1058,1.3
1059,1059,1.29
1060,1063,1.29
1056,1057,1.29
1055,1055,1.29
1072,1071,1.31
1072,1069,1.31
1078,1076,1.32
1072,1054,1.31
1060,1061,1.29
1061,1057,1.3
1056,1057,1.29
1057,1052,1.29
1058,1058,1.29
1046,1041,1.28
1060,1062,1.29
1063,1059,1.3
1059,1053,1.29
1072,1070,1.31
1061,1060,1.3
1066,1067,1.3
1053,1056,1.29
1048,1053,1.28
1058,1062,1.29
1054,1051,1.29
1051,1058,1.28
1053,1057,1.29
1069,1069,1.31
1056,1059,1.29
1045,1040,1.28
1040,1040,1.27
1040,1040,1.27
1037,1043,1.27
1040,1039,1.27
1037,1032,1.27
1034,1030,1.26
