,AnalogValue,Density,Amplitude,Result
0,688,686.0,0.84,1
1,692,695.0,0.84,1
2,737,739.0,0.9,1
3,736,736.0,0.9,1
4,732,723.0,0.89,1
5,721,721.0,0.88,1
6,722,720.0,0.88,1
7,723,721.0,0.88,1
8,714,715.0,0.87,1
9,706,710.0,0.86,1
10,704,709.0,0.86,1
11,699,700.0,0.85,1
12,689,691.0,0.84,1
13,681,679.0,0.83,1
14,686,684.0,0.84,1
15,682,681.0,0.83,1
16,685,686.0,0.84,1
17,683,681.0,0.83,1
18,685,687.0,0.84,1
19,684,686.0,0.84,1
20,686,684.0,0.84,1
21,679,667.0,0.83,1
22,704,704.0,0.86,1
23,701,703.0,0.86,1
24,721,721.0,0.88,1
25,737,739.0,0.9,1
26,725,727.0,0.89,1
27,720,720.0,0.88,1
28,718,720.0,0.88,1
29,715,715.0,0.87,1
30,704,697.0,0.86,1
31,702,697.0,0.86,1
32,688,690.0,0.84,1
33,688,689.0,0.84,1
34,686,688.0,0.84,1
35,683,675.0,0.83,1
36,679,678.0,0.83,1
37,677,683.0,0.83,1
38,682,681.0,0.83,1
39,674,679.0,0.82,1
40,669,672.0,0.82,1
41,669,674.0,0.82,1
42,679,686.0,0.83,1
43,690,687.0,0.84,1
44,679,683.0,0.83,1
45,676,675.0,0.83,1
46,672,669.0,0.82,1
47,674,668.0,0.82,1
48,668,670.0,0.82,1
49,660,658.0,0.81,1
50,656,654.0,0.8,1
51,650,654.0,0.79,1
52,656,656.0,0.8,1
53,657,659.0,0.8,1
54,700,699.0,0.85,1
55,705,704.0,0.86,1
56,726,730.0,0.89,1
57,735,735.0,0.9,1
58,731,733.0,0.89,1
59,727,726.0,0.89,1
60,720,720.0,0.88,1
61,702,703.0,0.86,1
62,697,703.0,0.85,1
63,691,693.0,0.84,1
64,687,687.0,0.84,1
65,679,678.0,0.83,1
66,670,669.0,0.82,1
67,663,661.0,0.81,1
68,657,658.0,0.8,1
69,657,658.0,0.8,1
70,650,653.0,0.79,1
71,680,678.0,0.83,1
72,685,682.0,0.84,1
73,689,695.0,0.84,1
74,699,694.0,0.85,1
75,692,698.0,0.84,1
76,693,690.0,0.85,1
77,687,686.0,0.84,1
78,685,679.0,0.84,1
79,672,672.0,0.82,1
80,670,671.0,0.82,1
81,674,678.0,0.82,1
82,675,674.0,0.82,1
83,673,671.0,0.82,1
84,666,673.0,0.81,1
85,673,674.0,0.82,1
86,687,685.0,0.84,1
87,687,685.0,0.84,1
88,690,689.0,0.84,1
89,685,682.0,0.84,1
90,687,686.0,0.84,1
91,681,682.0,0.83,1
92,672,675.0,0.82,1
93,673,668.0,0.82,1
94,666,667.0,0.81,1
95,656,663.0,0.8,1
96,671,672.0,0.82,1
97,675,669.0,0.82,1
98,678,676.0,0.83,1
99,677,679.0,0.83,1
0,623,627.0,0.76,1
1,628,629.0,0.77,1
2,621,621.0,0.76,1
3,621,621.0,0.76,1
4,608,617.0,0.74,1
5,615,611.0,0.75,1
6,633,627.0,0.77,1
7,630,633.0,0.77,1
8,638,638.0,0.78,1
9,656,658.0,0.8,1
10,656,656.0,0.8,1
11,651,647.0,0.79,1
12,641,640.0,0.78,1
13,635,626.0,0.78,1
14,638,639.0,0.78,1
15,640,638.0,0.78,1
16,629,629.0,0.77,1
17,653,658.0,0.8,1
18,676,659.0,0.83,1
19,656,656.0,0.8,1
20,642,640.0,0.78,1
21,636,635.0,0.78,1
22,635,641.0,0.78,1
23,655,656.0,0.8,1
24,669,662.0,0.82,1
25,677,677.0,0.83,1
26,697,693.0,0.85,1
27,678,683.0,0.83,1
28,674,673.0,0.82,1
29,669,675.0,0.82,1
30,672,670.0,0.82,1
31,685,679.0,0.84,1
32,686,686.0,0.84,1
33,695,695.0,0.85,1
34,700,698.0,0.85,1
35,725,716.0,0.89,1
36,707,704.0,0.86,1
37,704,710.0,0.86,1
38,723,727.0,0.88,1
39,752,751.0,0.92,1
40,771,766.0,0.94,1
41,774,781.0,0.95,1
42,795,793.0,0.97,1
43,787,784.0,0.96,1
44,783,770.0,0.96,1
45,755,757.0,0.92,1
46,758,752.0,0.93,1
47,726,727.0,0.89,1
48,722,721.0,0.88,1
49,720,713.0,0.88,1
50,699,690.0,0.85,1
51,694,691.0,0.85,1
52,685,688.0,0.84,1
53,681,679.0,0.83,1
54,678,673.0,0.83,1
55,656,659.0,0.8,1
56,652,658.0,0.8,1
57,660,656.0,0.81,1
58,670,668.0,0.82,1
59,675,672.0,0.82,1
60,704,700.0,0.86,1
61,743,751.0,0.91,1
62,750,752.0,0.92,1
63,762,763.0,0.93,1
64,751,752.0,0.92,1
65,752,749.0,0.92,1
66,752,752.0,0.92,1
67,755,752.0,0.92,1
68,784,784.0,0.96,1
69,770,770.0,0.94,1
70,768,770.0,0.94,1
71,765,762.0,0.93,1
72,754,752.0,0.92,1
73,752,749.0,0.92,1
74,746,742.0,0.91,1
75,733,731.0,0.89,1
76,739,738.0,0.9,1
77,741,741.0,0.9,1
78,724,723.0,0.88,1
79,713,718.0,0.87,1
80,711,709.0,0.87,1
81,698,700.0,0.85,1
82,698,697.0,0.85,1
83,694,699.0,0.85,1
84,683,688.0,0.83,1
85,687,690.0,0.84,1
86,669,667.0,0.82,1
87,669,661.0,0.82,1
88,657,653.0,0.8,1
89,649,651.0,0.79,1
90,650,651.0,0.79,1
91,654,646.0,0.8,1
92,645,641.0,0.79,1
93,635,638.0,0.78,1
94,615,617.0,0.75,1
95,624,625.0,0.76,1
96,619,624.0,0.76,1
97,614,620.0,0.75,1
98,614,615.0,0.75,1
99,611,610.0,0.75,1
100,1329,1.62,,1
101,1344,1.64,,1
102,1360,1.66,,1
103,1360,1.66,,1
104,1330,1.62,,1
105,1338,1.63,,1
106,1339,1.64,,1
107,1364,1.67,,1
108,1388,1.7,,1
109,1377,1.68,,1
110,1366,1.68,,1
111,1349,1.64,,1
112,1339,1.64,,1
113,1328,1.62,,1
114,1296,1.59,,1
115,1291,1.58,,1
116,1285,1.57,,1
117,1305,1.59,,1
118,1322,1.61,,1
119,1315,1.61,,1
120,1325,1.62,,1
121,1339,1.62,,1
122,1325,1.63,,1
123,1328,1.63,,1
124,1299,1.59,,1
125,1293,1.59,,1
126,1280,1.57,,1
127,1264,1.54,,1
128,1264,1.55,,1
129,1262,1.54,,1
130,1251,1.53,,1
131,1296,1.58,,1
132,1379,1.68,,1
133,1403,1.72,,1
134,1378,1.68,,1
135,1390,1.7,,1
136,1421,1.74,,1
137,1487,1.81,,1
138,1495,1.82,,1
139,1490,1.83,,1
140,1495,1.82,,1
141,1458,1.79,,1
142,1449,1.77,,1
143,1433,1.75,,1
144,1413,1.72,,1
145,1399,1.71,,1
146,1392,1.69,,1
147,1415,1.73,,1
148,1441,1.76,,1
149,1430,1.75,,1
150,1428,1.74,,1
151,1453,1.78,,1
152,1472,1.8,,1
153,1492,1.82,,1
154,1490,1.82,,1
155,1489,1.82,,1
156,1478,1.81,,1
157,1459,1.78,,1
158,1454,1.77,,1
159,1434,1.76,,1
160,1424,1.73,,1
161,1397,1.7,,1
162,1417,1.72,,1
163,1415,1.73,,1
164,1423,1.73,,1
165,1412,1.72,,1
166,1399,1.71,,1
167,1429,1.74,,1
168,1479,1.81,,1
169,1473,1.81,,1
170,1467,1.79,,1
171,1456,1.78,,1
172,1465,1.79,,1
173,1454,1.78,,1
174,1428,1.75,,1
175,1425,1.74,,1
176,1410,1.73,,1
177,1409,1.71,,1
178,1415,1.73,,1
179,1443,1.76,,1
180,1425,1.74,,1
181,1419,1.73,,1
182,1424,1.74,,1
183,1458,1.78,,1
184,1467,1.81,,1
185,1471,1.8,,1
186,1457,1.78,,1
187,1441,1.76,,1
188,1437,1.76,,1
189,1427,1.74,,1
190,1397,1.7,,1
191,1386,1.69,,1
192,1371,1.67,,1
193,1395,1.7,,1
194,1403,1.71,,1
195,1392,1.7,,1
196,1381,1.69,,1
197,1360,1.66,,1
198,1360,1.66,,1
199,1382,1.68,,1
200,1353,1.65,,1
201,1339,1.64,,1
202,1330,1.63,,1
203,1312,1.61,,1
204,1294,1.58,,1
205,1285,1.57,,1
206,1271,1.55,,1
207,1258,1.54,,1
208,1269,1.55,,1
209,1323,1.62,,1
210,1317,1.61,,1
211,1306,1.59,,1
212,1299,1.58,,1
213,1299,1.58,,1
214,1352,1.65,,1
215,1392,1.69,,1
216,1367,1.67,,1
217,1354,1.66,,1
218,1346,1.64,,1
219,1340,1.63,,1
220,1315,1.6,,1
221,1303,1.59,,1
222,1298,1.58,,1
223,1302,1.58,,1
224,1317,1.61,,1
225,1309,1.6,,1
226,1294,1.58,,1
227,1273,1.55,,1
228,1265,1.54,,1
229,1273,1.56,,1
230,1274,1.56,,1
231,1275,1.56,,1
232,1270,1.55,,1
233,1289,1.58,,1
234,1296,1.59,,1
235,1326,1.62,,1
236,1325,1.61,,1
237,1301,1.59,,1
238,1286,1.57,,1
239,1277,1.55,,1
240,1281,1.57,,1
241,1275,1.56,,1
242,1264,1.54,,1
243,1270,1.55,,1
244,1271,1.56,,1
245,1268,1.55,,1
246,1255,1.53,,1
247,1230,1.5,,1
248,1232,1.51,,1
249,1226,1.5,,1
250,1206,1.47,,1
251,1201,1.47,,1
252,1190,1.45,,1
253,1163,1.42,,1
254,1158,1.41,,1
255,1163,1.41,,1
256,1182,1.44,,1
257,1166,1.42,,1
258,1165,1.42,,1
259,1165,1.41,,1
260,1139,1.39,,1
261,1126,1.38,,1
262,1122,1.37,,1
263,1103,1.35,,1
264,1095,1.35,,1
265,1090,1.33,,1
266,1084,1.32,,1
267,1098,1.33,,1
268,1114,1.36,,1
269,1117,1.36,,1
270,1197,1.47,,1
271,1185,1.45,,1
272,1185,1.44,,1
273,1173,1.43,,1
274,1169,1.43,,1
275,1158,1.42,,1
276,1177,1.43,,1
277,1181,1.44,,1
278,1169,1.43,,1
279,1167,1.43,,1
280,1152,1.41,,1
281,1149,1.4,,1
282,1137,1.39,,1
283,1132,1.38,,1
284,1136,1.38,,1
285,1133,1.38,,1
286,1125,1.37,,1
287,1123,1.37,,1
288,1115,1.37,,1
289,1104,1.35,,1
290,1092,1.34,,1
291,1086,1.33,,1
292,1070,1.31,,1
293,1055,1.29,,1
294,1051,1.28,,1
295,1041,1.27,,1
296,1034,1.26,,1
297,1027,1.26,,1
298,1017,1.24,,1
299,1008,1.23,,1
300,998,1.22,,1
301,1006,1.22,,1
302,994,1.21,,1
303,986,1.2,,1
304,984,1.2,,1
305,985,1.21,,1
306,979,1.2,,1
307,966,1.19,,1
308,975,1.19,,1
309,980,1.19,,1
310,1008,1.22,,1
311,1007,1.23,,1
312,1011,1.23,,1
313,1009,1.23,,1
314,1006,1.22,,1
315,993,1.21,,1
316,978,1.2,,1
317,978,1.19,,1
318,983,1.19,,1
319,983,1.2,,1
320,979,1.19,,1
321,981,1.19,,1
322,985,1.2,,1
323,978,1.19,,1
324,969,1.18,,1
325,961,1.17,,1
326,956,1.17,,1
327,958,1.16,,1
328,945,1.16,,1
329,957,1.16,,1
330,946,1.16,,1
331,946,1.15,,1
332,950,1.15,,1
333,923,1.15,,1
334,938,1.14,,1
335,933,1.14,,1
336,941,1.15,,1
337,967,1.18,,1
338,971,1.18,,1
339,967,1.18,,1
340,956,1.17,,1
341,955,1.17,,1
342,944,1.15,,1
343,942,1.15,,1
344,937,1.14,,1
345,937,1.14,,1
346,944,1.15,,1
347,941,1.15,,1
348,928,1.15,,1
349,938,1.15,,1
350,931,1.14,,1
351,918,1.13,,1
352,914,1.11,,1
353,906,1.11,,1
354,908,1.11,,1
355,911,1.12,,1
356,918,1.11,,1
357,912,1.11,,1
358,913,1.12,,1
359,914,1.12,,1
360,909,1.11,,1
361,911,1.11,,1
362,913,1.12,,1
363,912,1.11,,1
364,911,1.11,,1
365,902,1.1,,1
366,903,1.11,,1
367,903,1.1,,1
368,903,1.1,,1
369,901,1.09,,1
370,898,1.1,,1
371,901,1.1,,1
372,899,1.09,,1
373,900,1.11,,1
374,907,1.11,,1
375,903,1.1,,1
376,889,1.09,,1
377,881,1.06,,1
378,863,1.07,,1
379,870,1.07,,1
380,879,1.07,,1
381,866,1.07,,1
382,880,1.07,,1
383,877,1.07,,1
384,867,1.07,,1
385,867,1.06,,1
386,858,1.04,,1
387,855,1.04,,1
388,865,1.06,,1
389,869,1.06,,1
390,867,1.06,,1
391,874,1.06,,1
392,866,1.06,,1
393,880,1.07,,1
394,877,1.07,,1
395,871,1.05,,1
396,864,1.06,,1
397,870,1.05,,1
398,880,1.07,,1
399,871,1.07,,1
400,876,1.07,,1
401,880,1.07,,1
402,878,1.07,,1
403,871,1.07,,1
404,865,1.06,,1
405,858,1.05,,1
406,857,1.05,,1
407,857,1.04,,1
408,855,1.05,,1
409,855,1.05,,1
410,859,1.07,,1
411,856,1.04,,1
412,847,1.04,,1
413,852,1.03,,1
414,842,1.03,,1
415,837,1.02,,1
416,862,1.04,,1
417,867,1.05,,1
418,867,1.06,,1
419,869,1.06,,1
420,871,1.06,,1
421,865,1.06,,1
422,877,1.07,,1
423,879,1.07,,1
424,887,1.08,,1
425,903,1.08,,1
426,902,1.1,,1
427,906,1.1,,1
428,899,1.1,,1
429,900,1.1,,1
430,895,1.08,,1
431,891,1.09,,1
432,892,1.09,,1
433,899,1.1,,1
434,900,1.1,,1
435,898,1.1,,1
436,898,1.1,,1
437,899,1.1,,1
438,901,1.11,,1
439,893,1.09,,1
440,887,1.09,,1
441,886,1.08,,1
442,891,1.09,,1
443,887,1.08,,1
444,885,1.08,,1
445,885,1.08,,1
446,887,1.08,,1
447,879,1.07,,1
448,893,1.09,,1
449,909,1.11,,1
450,910,1.11,,1
451,912,1.11,,1
452,913,1.12,,1
453,917,1.13,,1
454,913,1.12,,1
455,917,1.14,,1
456,919,1.12,,1
457,915,1.12,,1
458,913,1.12,,1
459,914,1.12,,1
460,916,1.16,,1
461,917,1.13,,1
462,922,1.13,,1
463,933,1.11,,1
464,938,1.16,,1
465,934,1.14,,1
466,928,1.13,,1
467,927,1.13,,1
468,921,1.14,,1
469,931,1.14,,1
470,944,1.15,,1
471,944,1.16,,1
472,944,1.15,,1
473,949,1.15,,1
474,945,1.15,,1
475,943,1.16,,1
476,945,1.14,,1
477,953,1.15,,1
478,954,1.16,,1
479,957,1.16,,1
480,975,1.19,,1
481,979,1.2,,1
482,983,1.21,,1
483,983,1.21,,1
484,979,1.2,,1
485,977,1.19,,1
486,976,1.2,,1
487,982,1.19,,1
488,982,1.19,,1
489,976,1.19,,1
490,976,1.19,,1
491,981,1.19,,1
492,977,1.19,,1
493,988,1.21,,1
494,991,1.23,,1
495,1002,1.23,,1
496,1007,1.23,,1
497,1009,1.23,,1
498,1010,1.23,,1
499,1012,1.23,,1
500,1001,1.23,,1
501,1013,1.22,,1
502,998,1.21,,1
503,1018,1.24,,1
504,1021,1.28,,1
505,1056,1.29,,1
506,1065,1.31,,1
507,1065,1.29,,1
508,1079,1.29,,1
509,1049,1.3,,1
510,1057,1.26,,1
511,1085,1.29,,1
512,1061,1.3,,1
513,1051,1.28,,1
514,1056,1.27,,1
515,1040,1.27,,1
516,1040,1.27,,1
517,1054,1.27,,1
518,1041,1.3,,1
519,1047,1.28,,1
520,1044,1.27,,1
521,1061,1.29,,1
522,1085,1.29,,1
523,1072,1.31,,1
524,1072,1.31,,1
525,1071,1.31,,1
526,1069,1.31,,1
527,1072,1.3,,1
528,1070,1.31,,1
529,1076,1.32,,1
530,1086,1.32,,1
531,1072,1.32,,1
532,1072,1.31,,1
533,1073,1.32,,1
534,1085,1.32,,1
535,1082,1.32,,1
536,1095,1.31,,1
537,1079,1.32,,1
538,1127,1.38,,1
539,1121,1.37,,1
540,1110,1.36,,1
541,1111,1.35,,1
542,1103,1.35,,1
543,1118,1.34,,1
544,1105,1.35,,1
545,1107,1.35,,1
546,1114,1.33,,1
547,1089,1.33,,1
548,1104,1.32,,1
549,1088,1.32,,1
550,1090,1.33,,1
551,1091,1.33,,1
552,1073,1.33,,1
553,1112,1.35,,1
554,1114,1.35,,1
555,1103,1.35,,1
556,1143,1.39,,1
557,1141,1.39,,1
558,1141,1.39,,1
559,1155,1.39,,1
560,1138,1.39,,1
561,1120,1.38,,1
562,1126,1.38,,1
563,1126,1.37,,1
564,1119,1.36,,1
565,1122,1.37,,1
566,1114,1.36,,1
567,1113,1.36,,1
568,1120,1.36,,1
569,1110,1.36,,1
570,1109,1.36,,1
571,1115,1.35,,1
572,1110,1.36,,1
573,1104,1.36,,1
574,1104,1.35,,1
575,1102,1.35,,1
576,1088,1.35,,1
577,1122,1.36,,1
578,1119,1.37,,1
579,1092,1.35,,1
580,1110,1.35,,1
581,1118,1.35,,1
582,1124,1.35,,1
583,1115,1.36,,1
584,1079,1.35,,1
585,1117,1.37,,1
586,1135,1.38,,1
587,1116,1.37,,1
588,1134,1.37,,1
589,1146,1.37,,1
590,1127,1.37,,1
591,1121,1.37,,1
592,1109,1.36,,1
593,1106,1.35,,1
594,1119,1.37,,1
595,1150,1.43,,1
596,1159,1.42,,1
597,1149,1.4,,1
598,1147,1.4,,1
599,1140,1.39,,1
0,996,997.0,1.22,1
1,996,1002.0,1.22,1
2,991,995.0,1.21,1
3,976,978.0,1.19,1
4,976,976.0,1.19,1
5,974,969.0,1.19,1
6,972,971.0,1.19,1
7,966,976.0,1.18,1
8,966,970.0,1.18,1
9,961,955.0,1.17,1
10,961,955.0,1.17,1
11,961,967.0,1.17,1
12,956,951.0,1.17,1
13,944,940.0,1.15,1
14,937,939.0,1.14,1
15,942,943.0,1.15,1
16,933,944.0,1.14,1
17,979,981.0,1.2,1
18,975,983.0,1.19,1
19,977,980.0,1.19,1
20,974,973.0,1.19,1
21,957,959.0,1.17,1
22,961,962.0,1.17,1
23,978,976.0,1.19,1
24,974,975.0,1.19,1
25,970,976.0,1.18,1
26,973,972.0,1.19,1
27,966,965.0,1.18,1
28,960,960.0,1.17,1
29,975,974.0,1.19,1
30,958,958.0,1.17,1
31,960,960.0,1.17,1
32,948,949.0,1.16,1
33,946,944.0,1.16,1
34,948,931.0,1.16,1
35,947,941.0,1.16,1
36,944,947.0,1.15,1
37,945,944.0,1.15,1
38,944,944.0,1.15,1
39,934,925.0,1.14,1
40,938,937.0,1.15,1
41,927,930.0,1.13,1
42,922,925.0,1.13,1
43,929,930.0,1.13,1
44,940,937.0,1.15,1
45,939,937.0,1.15,1
46,944,944.0,1.15,1
47,945,945.0,1.15,1
48,932,929.0,1.14,1
49,935,935.0,1.14,1
50,944,943.0,1.15,1
51,940,938.0,1.15,1
52,947,946.0,1.16,1
53,944,943.0,1.15,1
54,942,944.0,1.15,1
55,944,941.0,1.15,1
56,950,946.0,1.16,1
57,945,949.0,1.15,1
58,945,945.0,1.15,1
59,942,944.0,1.15,1
60,944,942.0,1.15,1
61,958,957.0,1.17,1
62,960,960.0,1.17,1
63,954,950.0,1.16,1
64,944,948.0,1.15,1
65,938,940.0,1.15,1
66,942,941.0,1.15,1
67,937,934.0,1.14,1
68,944,944.0,1.15,1
69,950,944.0,1.16,1
70,951,949.0,1.16,1
71,944,944.0,1.15,1
72,943,939.0,1.15,1
73,933,931.0,1.14,1
74,929,928.0,1.13,1
75,928,928.0,1.13,1
76,931,923.0,1.14,1
77,919,918.0,1.12,1
78,924,922.0,1.13,1
79,919,916.0,1.12,1
80,925,919.0,1.13,1
81,924,923.0,1.13,1
82,912,912.0,1.11,1
83,897,901.0,1.1,1
84,901,901.0,1.1,1
85,900,895.0,1.1,1
86,903,896.0,1.1,1
87,912,914.0,1.11,1
88,912,910.0,1.11,1
89,908,912.0,1.11,1
90,922,915.0,1.13,1
91,928,926.0,1.13,1
92,939,943.0,1.15,1
93,958,960.0,1.17,1
94,1008,1007.0,1.23,1
95,1017,1015.0,1.24,1
96,1040,1040.0,1.27,1
97,1036,1029.0,1.26,1
98,1005,1019.0,1.23,1
99,1008,1005.0,1.23,1
100,990,992.0,1.21,1
101,992,986.0,1.21,1
102,985,987.0,1.2,1
103,981,979.0,1.2,1
104,976,977.0,1.19,1
105,976,974.0,1.19,1
106,963,966.0,1.18,1
107,963,960.0,1.18,1
108,962,960.0,1.17,1
109,949,950.0,1.16,1
110,950,951.0,1.16,1
111,946,946.0,1.16,1
112,953,960.0,1.16,1
113,975,974.0,1.19,1
114,967,964.0,1.18,1
115,955,958.0,1.17,1
116,950,947.0,1.16,1
117,933,935.0,1.14,1
118,934,934.0,1.14,1
119,935,940.0,1.14,1
120,925,926.0,1.13,1
121,938,939.0,1.15,1
122,931,941.0,1.14,1
123,937,935.0,1.14,1
124,934,934.0,1.14,1
125,928,924.0,1.13,1
126,926,926.0,1.13,1
127,921,926.0,1.12,1
128,929,924.0,1.13,1
129,935,931.0,1.14,1
130,930,931.0,1.14,1
131,957,957.0,1.17,1
132,1013,1014.0,1.24,1
133,1006,1001.0,1.23,1
134,984,986.0,1.2,1
135,976,975.0,1.19,1
136,977,981.0,1.19,1
137,985,992.0,1.2,1
138,993,989.0,1.21,1
139,999,993.0,1.22,1
140,994,992.0,1.21,1
141,993,996.0,1.21,1
142,995,991.0,1.21,1
143,995,999.0,1.21,1
144,1008,1009.0,1.23,1
145,1002,1001.0,1.22,1
146,995,994.0,1.21,1
147,996,993.0,1.22,1
148,985,987.0,1.2,1
149,981,985.0,1.2,1
150,999,1003.0,1.22,1
151,990,986.0,1.21,1
152,980,981.0,1.2,1
153,988,990.0,1.21,1
154,991,980.0,1.21,1
155,993,989.0,1.21,1
156,992,991.0,1.21,1
157,997,995.0,1.22,1
158,1037,1037.0,1.27,1
159,1020,1023.0,1.25,1
160,1023,1023.0,1.25,1
161,1036,1030.0,1.26,1
162,1018,1020.0,1.24,1
163,1008,1011.0,1.23,1
164,1008,1009.0,1.23,1
165,1015,1011.0,1.24,1
166,1015,1015.0,1.24,1
167,1043,1040.0,1.27,1
168,1037,1035.0,1.27,1
169,1033,1033.0,1.26,1
170,1030,1023.0,1.26,1
171,1034,1037.0,1.26,1
172,1069,1070.0,1.31,1
173,1066,1064.0,1.3,1
174,1060,1059.0,1.29,1
175,1035,1038.0,1.26,1
176,1023,1036.0,1.25,1
177,1052,1049.0,1.28,1
178,1058,1062.0,1.29,1
179,1058,1062.0,1.29,1
180,1058,1063.0,1.29,1
181,1067,1067.0,1.3,1
182,1051,1051.0,1.28,1
183,1037,1039.0,1.27,1
184,1039,1036.0,1.27,1
185,1028,1021.0,1.26,1
186,1020,1017.0,1.25,1
187,1009,1008.0,1.23,1
188,1004,999.0,1.23,1
189,997,997.0,1.22,1
190,990,983.0,1.21,1
191,993,997.0,1.21,1
192,1008,1001.0,1.23,1
193,1008,1002.0,1.23,1
194,1008,1006.0,1.23,1
195,1006,1008.0,1.23,1
196,1035,1030.0,1.26,1
197,1018,1010.0,1.24,1
198,1008,1003.0,1.23,1
199,991,990.0,1.21,1
200,978,977.0,1.19,1
201,981,989.0,1.2,1
202,1002,1001.0,1.22,1
203,1003,1005.0,1.22,1
204,1031,1023.0,1.26,1
205,1042,1041.0,1.27,1
206,1041,1039.0,1.27,1
207,1022,1029.0,1.25,1
208,1017,1011.0,1.24,1
209,1011,1015.0,1.23,1
210,1014,1015.0,1.24,1
211,1015,1019.0,1.24,1
212,1064,1065.0,1.3,1
213,1069,1072.0,1.31,1
214,1071,1066.0,1.31,1
215,1073,1078.0,1.31,1
216,1089,1088.0,1.33,1
217,1090,1090.0,1.33,1
218,1077,1082.0,1.32,1
219,1079,1073.0,1.32,1
220,1071,1081.0,1.31,1
221,1072,1068.0,1.31,1
222,1068,1065.0,1.3,1
223,1087,1086.0,1.33,1
224,1092,1103.0,1.33,1
225,1152,1151.0,1.41,1
226,1155,1158.0,1.41,1
227,1181,1183.0,1.44,1
228,1187,1184.0,1.45,1
229,1168,1167.0,1.43,1
230,1154,1154.0,1.41,1
231,1154,1151.0,1.41,1
232,1170,1168.0,1.43,1
233,1171,1166.0,1.43,1
234,1168,1171.0,1.43,1
235,1151,1153.0,1.41,1
236,1151,1152.0,1.41,1
237,1142,1138.0,1.39,1
238,1145,1151.0,1.4,1
239,1151,1143.0,1.41,1
240,1136,1132.0,1.39,1
241,1139,1142.0,1.39,1
242,1139,1137.0,1.39,1
243,1136,1133.0,1.39,1
244,1129,1133.0,1.38,1
245,1110,1104.0,1.36,1
246,1119,1117.0,1.37,1
247,1134,1125.0,1.38,1
248,1127,1125.0,1.38,1
249,1117,1118.0,1.36,1
250,1107,1111.0,1.35,1
251,1100,1101.0,1.34,1
252,1130,1127.0,1.38,1
253,1125,1123.0,1.37,1
254,1125,1125.0,1.37,1
255,1121,1123.0,1.37,1
256,1127,1133.0,1.38,1
257,1143,1141.0,1.4,1
258,1164,1166.0,1.42,1
259,1155,1158.0,1.41,1
260,1170,1168.0,1.43,1
261,1218,1222.0,1.49,1
262,1218,1222.0,1.49,1
263,1216,1220.0,1.48,1
264,1216,1206.0,1.48,1
265,1195,1195.0,1.46,1
266,1186,1184.0,1.45,1
267,1177,1175.0,1.44,1
268,1148,1150.0,1.4,1
269,1149,1152.0,1.4,1
270,1146,1147.0,1.4,1
271,1149,1148.0,1.4,1
272,1139,1144.0,1.39,1
273,1154,1152.0,1.41,1
274,1152,1151.0,1.41,1
275,1123,1120.0,1.37,1
276,1113,1117.0,1.36,1
277,1109,1106.0,1.35,1
278,1101,1102.0,1.34,1
279,1097,1088.0,1.34,1
280,1091,1090.0,1.33,1
281,1103,1101.0,1.35,1
282,1099,1101.0,1.34,1
283,1099,1099.0,1.34,1
284,1123,1134.0,1.37,1
285,1116,1116.0,1.36,1
286,1118,1119.0,1.37,1
287,1121,1118.0,1.37,1
288,1104,1104.0,1.35,1
289,1104,1104.0,1.35,1
290,1099,1100.0,1.34,1
291,1075,1081.0,1.31,1
292,1098,1104.0,1.34,1
293,1102,1096.0,1.35,1
294,1099,1096.0,1.34,1
295,1089,1093.0,1.33,1
296,1093,1094.0,1.33,1
297,1093,1099.0,1.33,1
298,1093,1091.0,1.33,1
299,1088,1087.0,1.33,1
300,1089,1092.0,1.33,1
301,1103,1099.0,1.35,1
302,1105,1104.0,1.35,1
303,1104,1104.0,1.35,1
304,1099,1101.0,1.34,1
305,1097,1103.0,1.34,1
306,1083,1081.0,1.32,1
307,1103,1104.0,1.35,1
308,1109,1109.0,1.35,1
309,1106,1106.0,1.35,1
310,1104,1104.0,1.35,1
311,1103,1100.0,1.35,1
312,1100,1099.0,1.34,1
313,1089,1093.0,1.33,1
314,1083,1087.0,1.32,1
315,1073,1075.0,1.31,1
316,1069,1068.0,1.31,1
317,1069,1072.0,1.31,1
318,1070,1072.0,1.31,1
319,1066,1071.0,1.3,1
320,1090,1093.0,1.33,1
321,1089,1092.0,1.33,1
322,1104,1104.0,1.35,1
323,1121,1130.0,1.37,1
324,1140,1137.0,1.39,1
325,1134,1134.0,1.38,1
326,1124,1124.0,1.37,1
327,1118,1119.0,1.37,1
328,1104,1102.0,1.35,1
329,1090,1089.0,1.33,1
330,1081,1080.0,1.32,1
331,1074,1073.0,1.31,1
332,1077,1077.0,1.32,1
333,1069,1071.0,1.31,1
334,1077,1077.0,1.32,1
335,1071,1075.0,1.31,1
336,1061,1057.0,1.3,1
337,1046,1049.0,1.28,1
338,1052,1051.0,1.28,1
339,1056,1067.0,1.29,1
340,1054,1055.0,1.29,1
341,1047,1047.0,1.28,1
342,1042,1040.0,1.27,1
343,1034,1037.0,1.26,1
344,1007,1010.0,1.23,1
345,1008,1005.0,1.23,1
346,1013,1013.0,1.24,1
347,1015,1010.0,1.24,1
348,1015,1014.0,1.24,1
349,1033,1036.0,1.26,1
350,1039,1040.0,1.27,1
351,1013,1011.0,1.24,1
352,1005,1006.0,1.23,1
353,1012,1017.0,1.24,1
354,1011,1017.0,1.23,1
355,1031,1031.0,1.26,1
356,1021,1029.0,1.25,1
357,1049,1046.0,1.28,1
358,1040,1040.0,1.27,1
359,1028,1019.0,1.26,1
360,1015,1019.0,1.24,1
361,1022,1019.0,1.25,1
362,1021,1021.0,1.25,1
363,1072,1079.0,1.31,1
364,1120,1114.0,1.37,1
365,1118,1113.0,1.37,1
366,1111,1118.0,1.36,1
367,1097,1102.0,1.34,1
368,1093,1094.0,1.33,1
369,1095,1092.0,1.34,1
370,1111,1106.0,1.36,1
371,1119,1120.0,1.37,1
372,1136,1136.0,1.39,1
373,1152,1149.0,1.41,1
374,1130,1136.0,1.38,1
375,1129,1147.0,1.38,1
376,1167,1168.0,1.42,1
377,1223,1226.0,1.49,1
378,1253,1253.0,1.53,1
379,1246,1241.0,1.52,1
380,1285,1283.0,1.57,1
381,1289,1286.0,1.57,1
382,1278,1271.0,1.56,1
383,1287,1291.0,1.57,1
384,1298,1296.0,1.58,1
385,1291,1294.0,1.58,1
386,1293,1289.0,1.58,1
387,1281,1282.0,1.56,1
388,1281,1280.0,1.56,1
389,1281,1280.0,1.56,1
390,1266,1264.0,1.55,1
391,1254,1254.0,1.53,1
392,1247,1243.0,1.52,1
393,1232,1234.0,1.5,1
394,1226,1230.0,1.5,1
395,1231,1232.0,1.5,1
396,1222,1223.0,1.49,1
397,1245,1245.0,1.52,1
398,1235,1242.0,1.51,1
399,1232,1239.0,1.5,1
400,1236,1237.0,1.51,1
401,1239,1242.0,1.51,1
402,1232,1233.0,1.5,1
403,1229,1226.0,1.5,1
404,1207,1207.0,1.47,1
405,1200,1200.0,1.47,1
406,1194,1193.0,1.46,1
407,1178,1179.0,1.44,1
408,1178,1173.0,1.44,1
409,1170,1168.0,1.43,1
410,1170,1171.0,1.43,1
411,1180,1174.0,1.44,1
412,1169,1168.0,1.43,1
413,1157,1155.0,1.41,1
414,1190,1197.0,1.45,1
415,1195,1197.0,1.46,1
416,1199,1200.0,1.46,1
417,1202,1207.0,1.47,1
418,1215,1214.0,1.48,1
419,1205,1206.0,1.47,1
420,1194,1195.0,1.46,1
421,1219,1221.0,1.49,1
422,1221,1219.0,1.49,1
423,1222,1217.0,1.49,1
424,1220,1223.0,1.49,1
425,1216,1215.0,1.48,1
426,1233,1235.0,1.51,1
427,1232,1227.0,1.5,1
428,1209,1209.0,1.48,1
429,1200,1200.0,1.47,1
430,1201,1199.0,1.47,1
431,1200,1200.0,1.47,1
432,1193,1194.0,1.46,1
433,1196,1199.0,1.46,1
434,1200,1199.0,1.47,1
435,1202,1202.0,1.47,1
436,1196,1190.0,1.46,1
437,1197,1198.0,1.46,1
438,1201,1201.0,1.47,1
439,1218,1223.0,1.49,1
440,1255,1259.0,1.53,1
441,1259,1258.0,1.54,1
442,1257,1258.0,1.53,1
443,1232,1232.0,1.5,1
444,1218,1217.0,1.49,1
445,1215,1200.0,1.48,1
446,1202,1200.0,1.47,1
447,1185,1189.0,1.45,1
448,1181,1179.0,1.44,1
449,1170,1174.0,1.43,1
450,1159,1163.0,1.42,1
451,1150,1152.0,1.4,1
452,1146,1143.0,1.4,1
453,1220,1214.0,1.49,1
454,1213,1216.0,1.48,1
455,1242,1243.0,1.52,1
456,1257,1255.0,1.53,1
457,1264,1263.0,1.54,1
458,1301,1299.0,1.59,1
459,1286,1283.0,1.57,1
460,1294,1299.0,1.58,1
461,1296,1296.0,1.58,1
462,1282,1289.0,1.57,1
463,1294,1296.0,1.58,1
464,1293,1296.0,1.58,1
465,1296,1299.0,1.58,1
466,1293,1291.0,1.58,1
467,1296,1300.0,1.58,1
468,1290,1287.0,1.58,1
469,1284,1286.0,1.57,1
470,1343,1334.0,1.64,1
471,1329,1329.0,1.62,1
472,1316,1317.0,1.61,1
473,1296,1296.0,1.58,1
474,1280,1283.0,1.56,1
475,1294,1293.0,1.58,1
476,1302,1301.0,1.59,1
477,1296,1298.0,1.58,1
478,1294,1296.0,1.58,1
479,1292,1295.0,1.58,1
480,1272,1266.0,1.55,1
481,1249,1252.0,1.53,1
482,1242,1241.0,1.52,1
483,1235,1232.0,1.51,1
484,1236,1232.0,1.51,1
485,1230,1230.0,1.5,1
486,1219,1219.0,1.49,1
487,1216,1218.0,1.48,1
488,1249,1246.0,1.53,1
489,1232,1227.0,1.5,1
490,1212,1212.0,1.48,1
491,1210,1210.0,1.48,1
492,1207,1208.0,1.47,1
493,1198,1195.0,1.46,1
494,1187,1191.0,1.45,1
495,1187,1189.0,1.45,1
496,1205,1202.0,1.47,1
497,1225,1219.0,1.5,1
498,1218,1215.0,1.49,1
499,1210,1210.0,1.48,1
500,1200,1202.0,1.47,1
501,1199,1199.0,1.46,1
502,1217,1218.0,1.49,1
503,1219,1227.0,1.49,1
504,1205,1205.0,1.47,1
505,1199,1199.0,1.46,1
506,1220,1221.0,1.49,1
507,1218,1214.0,1.49,1
508,1214,1207.0,1.48,1
509,1203,1202.0,1.47,1
510,1185,1187.0,1.45,1
511,1186,1180.0,1.45,1
512,1191,1186.0,1.45,1
513,1178,1181.0,1.44,1
514,1196,1191.0,1.46,1
515,1200,1200.0,1.47,1
516,1195,1197.0,1.46,1
517,1210,1213.0,1.48,1
518,1219,1225.0,1.49,1
519,1222,1218.0,1.49,1
520,1215,1221.0,1.48,1
521,1223,1226.0,1.49,1
522,1222,1218.0,1.49,1
523,1205,1206.0,1.47,1
524,1200,1200.0,1.47,1
525,1187,1194.0,1.45,1
526,1175,1171.0,1.43,1
527,1165,1167.0,1.42,1
528,1170,1170.0,1.43,1
529,1168,1168.0,1.43,1
530,1159,1165.0,1.42,1
531,1162,1156.0,1.42,1
532,1165,1168.0,1.42,1
533,1205,1202.0,1.47,1
534,1185,1183.0,1.45,1
535,1187,1187.0,1.45,1
536,1190,1190.0,1.45,1
537,1191,1194.0,1.45,1
538,1196,1195.0,1.46,1
539,1185,1184.0,1.45,1
540,1166,1181.0,1.42,1
541,1173,1175.0,1.43,1
542,1169,1168.0,1.43,1
543,1169,1172.0,1.43,1
544,1163,1170.0,1.42,1
545,1157,1154.0,1.41,1
546,1140,1146.0,1.39,1
547,1136,1142.0,1.39,1
548,1169,1168.0,1.43,1
549,1156,1158.0,1.41,1
550,1145,1147.0,1.4,1
551,1157,1165.0,1.41,1
552,1173,1171.0,1.43,1
553,1177,1177.0,1.44,1
554,1171,1170.0,1.43,1
555,1165,1169.0,1.42,1
556,1158,1155.0,1.41,1
557,1155,1152.0,1.41,1
558,1147,1139.0,1.4,1
559,1136,1137.0,1.39,1
560,1133,1127.0,1.38,1
561,1119,1125.0,1.37,1
562,1119,1116.0,1.37,1
563,1146,1154.0,1.4,1
564,1168,1168.0,1.43,1
565,1163,1168.0,1.42,1
566,1165,1163.0,1.42,1
567,1158,1163.0,1.41,1
568,1161,1155.0,1.42,1
569,1143,1143.0,1.4,1
570,1141,1141.0,1.39,1
571,1136,1138.0,1.39,1
572,1136,1136.0,1.39,1
573,1114,1107.0,1.36,1
574,1119,1122.0,1.37,1
575,1131,1127.0,1.38,1
576,1145,1149.0,1.4,1
577,1153,1155.0,1.41,1
578,1152,1152.0,1.41,1
579,1145,1143.0,1.4,1
580,1136,1135.0,1.39,1
581,1127,1130.0,1.38,1
582,1136,1140.0,1.39,1
583,1162,1159.0,1.42,1
584,1193,1193.0,1.46,1
585,1199,1194.0,1.46,1
586,1188,1191.0,1.45,1
587,1181,1178.0,1.44,1
588,1163,1163.0,1.42,1
589,1148,1147.0,1.4,1
590,1143,1141.0,1.4,1
591,1139,1139.0,1.39,1
592,1146,1148.0,1.4,1
593,1144,1147.0,1.4,1
594,1139,1137.0,1.39,1
595,1140,1136.0,1.39,1
596,1115,1115.0,1.36,1
597,1113,1115.0,1.36,1
598,1127,1135.0,1.38,1
599,1135,1133.0,1.39,1
600,1126,1132.0,1.37,1
601,1119,1120.0,1.37,1
602,1110,1109.0,1.36,1
603,1098,1098.0,1.34,1
604,1095,1094.0,1.34,1
605,1103,1097.0,1.35,1
606,1099,1103.0,1.34,1
607,1095,1098.0,1.34,1
608,1103,1104.0,1.35,1
609,1118,1117.0,1.37,1
610,1106,1105.0,1.35,1
611,1104,1101.0,1.35,1
612,1092,1094.0,1.33,1
613,1099,1100.0,1.34,1
614,1110,1108.0,1.36,1
615,1105,1109.0,1.35,1
616,1103,1104.0,1.35,1
617,1101,1104.0,1.34,1
618,1099,1097.0,1.34,1
619,1083,1078.0,1.32,1
620,1079,1077.0,1.32,1
621,1073,1073.0,1.31,1
622,1072,1072.0,1.31,1
623,1107,1118.0,1.35,1
624,1139,1136.0,1.39,1
625,1137,1136.0,1.39,1
626,1136,1138.0,1.39,1
627,1123,1126.0,1.37,1
628,1122,1119.0,1.37,1
629,1114,1110.0,1.36,1
630,1111,1110.0,1.36,1
631,1115,1114.0,1.36,1
632,1122,1116.0,1.37,1
633,1133,1136.0,1.38,1
634,1136,1128.0,1.39,1
635,1122,1123.0,1.37,1
636,1122,1132.0,1.37,1
637,1147,1139.0,1.4,1
638,1147,1149.0,1.4,1
639,1145,1147.0,1.4,1
640,1136,1136.0,1.39,1
641,1131,1130.0,1.38,1
642,1121,1123.0,1.37,1
643,1118,1115.0,1.37,1
644,1120,1115.0,1.37,1
645,1110,1109.0,1.36,1
646,1100,1101.0,1.34,1
647,1095,1093.0,1.34,1
648,1093,1087.0,1.33,1
649,1072,1071.0,1.31,1
650,1065,1069.0,1.3,1
651,1072,1072.0,1.31,1
652,1065,1066.0,1.3,1
653,1059,1058.0,1.29,1
654,1059,1056.0,1.29,1
655,1072,1072.0,1.31,1
656,1058,1059.0,1.29,1
657,1054,1054.0,1.29,1
658,1063,1063.0,1.3,1
659,1070,1070.0,1.31,1
660,1067,1071.0,1.3,1
661,1072,1072.0,1.31,1
662,1063,1061.0,1.3,1
663,1057,1057.0,1.29,1
664,1069,1072.0,1.31,1
665,1087,1092.0,1.33,1
666,1083,1079.0,1.32,1
667,1072,1075.0,1.31,1
668,1072,1069.0,1.31,1
669,1072,1072.0,1.31,1
670,1072,1072.0,1.31,1
671,1071,1069.0,1.31,1
672,1045,1042.0,1.28,1
673,1043,1040.0,1.27,1
674,1043,1054.0,1.27,1
675,1081,1083.0,1.32,1
676,1089,1088.0,1.33,1
677,1094,1088.0,1.34,1
678,1082,1081.0,1.32,1
679,1069,1065.0,1.31,1
680,1061,1058.0,1.3,1
681,1066,1066.0,1.3,1
682,1065,1060.0,1.3,1
683,1058,1054.0,1.29,1
684,1065,1059.0,1.3,1
685,1046,1047.0,1.28,1
686,1045,1049.0,1.28,1
687,1029,1031.0,1.26,1
688,1030,1023.0,1.26,1
689,1020,1015.0,1.25,1
690,1014,1015.0,1.24,1
691,1010,1008.0,1.23,1
692,1010,1008.0,1.23,1
693,1008,1008.0,1.23,1
694,1006,1008.0,1.23,1
695,984,978.0,1.2,1
696,991,987.0,1.21,1
697,977,981.0,1.19,1
698,982,975.0,1.2,1
699,988,978.0,1.21,1
700,973,977.0,1.19,1
701,971,971.0,1.19,1
702,976,982.0,1.19,1
703,970,971.0,1.18,1
704,966,965.0,1.18,1
705,983,992.0,1.2,1
706,986,987.0,1.2,1
707,976,983.0,1.19,1
708,977,978.0,1.19,1
709,974,980.0,1.19,1
710,986,992.0,1.2,1
711,995,997.0,1.21,1
712,976,982.0,1.19,1
713,976,979.0,1.19,1
714,973,976.0,1.19,1
715,972,972.0,1.19,1
716,965,965.0,1.18,1
717,965,960.0,1.18,1
718,977,976.0,1.19,1
719,976,976.0,1.19,1
720,976,979.0,1.19,1
721,960,963.0,1.17,1
722,959,951.0,1.17,1
723,953,956.0,1.16,1
724,961,947.0,1.17,1
725,958,957.0,1.17,1
726,957,953.0,1.17,1
727,950,944.0,1.16,1
728,947,945.0,1.16,1
729,946,942.0,1.16,1
730,947,947.0,1.16,1
731,941,944.0,1.15,1
732,944,944.0,1.15,1
733,926,944.0,1.13,1
734,944,944.0,1.15,1
735,943,965.0,1.15,1
736,960,939.0,1.17,1
737,934,937.0,1.14,1
738,942,943.0,1.15,1
739,929,931.0,1.13,1
740,925,926.0,1.13,1
741,927,924.0,1.13,1
742,928,926.0,1.13,1
743,929,931.0,1.13,1
744,926,925.0,1.13,1
745,915,916.0,1.12,1
746,911,916.0,1.11,1
747,910,913.0,1.11,1
748,917,912.0,1.12,1
749,911,909.0,1.11,1
750,896,884.0,1.09,1
751,892,903.0,1.09,1
752,902,892.0,1.1,1
753,903,908.0,1.1,1
754,915,917.0,1.12,1
755,914,912.0,1.12,1
756,912,913.0,1.11,1
757,889,887.0,1.09,1
758,887,887.0,1.08,1
759,921,911.0,1.12,1
760,925,922.0,1.13,1
761,922,913.0,1.13,1
762,911,914.0,1.11,1
763,912,912.0,1.11,1
764,918,912.0,1.12,1
765,909,910.0,1.11,1
766,911,910.0,1.11,1
767,911,909.0,1.11,1
768,905,910.0,1.11,1
769,910,917.0,1.11,1
770,919,912.0,1.12,1
771,912,912.0,1.11,1
772,967,969.0,1.18,1
773,992,992.0,1.21,1
774,995,992.0,1.21,1
775,990,991.0,1.21,1
776,983,986.0,1.2,1
777,999,1008.0,1.22,1
778,1009,1011.0,1.23,1
779,994,995.0,1.21,1
780,990,994.0,1.21,1
781,990,983.0,1.21,1
782,976,976.0,1.19,1
783,961,962.0,1.17,1
784,958,977.0,1.17,1
785,963,963.0,1.18,1
786,991,990.0,1.21,1
787,1011,1008.0,1.23,1
788,1030,1022.0,1.26,1
789,1023,1031.0,1.25,1
790,1069,1072.0,1.31,1
791,1056,1044.0,1.29,1
792,1063,1046.0,1.3,1
793,1074,1072.0,1.31,1
794,1065,1063.0,1.3,1
795,1070,1066.0,1.31,1
796,1068,1069.0,1.3,1
797,1066,1059.0,1.3,1
798,1047,1049.0,1.28,1
799,1036,1041.0,1.26,1
800,1030,1030.0,1.26,1
801,1022,1021.0,1.25,1
802,1029,1040.0,1.26,1
803,1015,1030.0,1.24,1
804,1014,1009.0,1.24,1
805,1003,1003.0,1.22,1
806,989,983.0,1.21,1
807,999,998.0,1.22,1
808,1013,1009.0,1.24,1
809,1009,1014.0,1.23,1
810,1011,1011.0,1.23,1
811,1002,1003.0,1.22,1
812,994,997.0,1.21,1
813,995,995.0,1.21,1
814,983,983.0,1.2,1
815,976,976.0,1.19,1
816,976,978.0,1.19,1
817,976,976.0,1.19,1
818,976,974.0,1.19,1
819,983,976.0,1.2,1
820,979,987.0,1.2,1
821,1019,988.0,1.24,1
822,976,976.0,1.19,1
823,965,962.0,1.18,1
824,955,949.0,1.17,1
825,949,953.0,1.16,1
826,953,949.0,1.16,1
827,947,944.0,1.16,1
828,945,931.0,1.15,1
829,942,939.0,1.15,1
830,934,931.0,1.14,1
831,942,947.0,1.15,1
832,914,918.0,1.12,1
833,919,915.0,1.12,1
834,912,912.0,1.11,1
835,910,911.0,1.11,1
836,905,904.0,1.11,1
837,902,902.0,1.1,1
838,899,903.0,1.1,1
839,907,909.0,1.11,1
840,927,922.0,1.13,1
841,927,922.0,1.13,1
842,950,959.0,1.16,1
843,976,976.0,1.19,1
844,990,991.0,1.21,1
845,993,995.0,1.21,1
846,992,988.0,1.21,1
847,979,980.0,1.2,1
848,976,977.0,1.19,1
849,961,959.0,1.17,1
850,965,964.0,1.18,1
851,961,971.0,1.17,1
852,970,970.0,1.18,1
853,976,977.0,1.19,1
854,1015,1014.0,1.24,1
855,1038,1040.0,1.27,1
856,1040,1040.0,1.27,1
857,1050,1042.0,1.28,1
858,1018,1018.0,1.24,1
859,1055,1056.0,1.29,1
860,1060,1067.0,1.29,1
861,1046,1046.0,1.28,1
862,1042,1046.0,1.27,1
863,1043,1041.0,1.27,1
864,1037,1061.0,1.27,1
865,1037,1030.0,1.27,1
866,1037,1033.0,1.27,1
867,1033,1031.0,1.26,1
868,1022,1022.0,1.25,1
869,1013,1015.0,1.24,1
870,1008,1008.0,1.23,1
871,1008,1016.0,1.23,1
872,1002,1004.0,1.22,1
873,983,983.0,1.2,1
874,978,976.0,1.19,1
875,976,973.0,1.19,1
876,981,976.0,1.2,1
877,979,976.0,1.2,1
878,976,973.0,1.19,1
879,976,974.0,1.19,1
880,976,975.0,1.19,1
881,971,970.0,1.19,1
882,955,953.0,1.17,1
883,942,947.0,1.15,1
884,939,945.0,1.15,1
885,962,960.0,1.17,1
886,976,976.0,1.19,1
887,974,975.0,1.19,1
888,966,966.0,1.18,1
889,961,962.0,1.17,1
890,946,942.0,1.16,1
891,934,935.0,1.14,1
892,939,942.0,1.15,1
893,954,946.0,1.16,1
894,965,959.0,1.18,1
895,960,963.0,1.17,1
896,959,974.0,1.17,1
897,961,960.0,1.17,1
898,955,957.0,1.17,1
899,954,951.0,1.16,1
900,934,939.0,1.14,1
901,940,938.0,1.15,1
902,935,936.0,1.14,1
903,932,933.0,1.14,1
904,934,936.0,1.14,1
905,950,951.0,1.16,1
906,982,983.0,1.2,1
907,1005,1002.0,1.23,1
908,995,992.0,1.21,1
909,1023,1034.0,1.25,1
910,1062,1065.0,1.3,1
911,1061,1066.0,1.3,1
912,1059,1057.0,1.29,1
913,1052,1043.0,1.28,1
914,1045,1052.0,1.28,1
915,1029,1029.0,1.26,1
916,1013,1008.0,1.24,1
917,1008,1008.0,1.23,1
918,997,995.0,1.22,1
919,989,995.0,1.21,1
920,985,976.0,1.2,1
921,978,987.0,1.19,1
922,990,990.0,1.21,1
923,1005,998.0,1.23,1
924,976,975.0,1.19,1
925,972,972.0,1.19,1
926,971,971.0,1.19,1
927,969,970.0,1.18,1
928,960,961.0,1.17,1
929,957,960.0,1.17,1
930,962,962.0,1.17,1
931,960,957.0,1.17,1
932,976,976.0,1.19,1
933,971,976.0,1.19,1
934,983,986.0,1.2,1
935,1008,1021.0,1.23,1
936,993,995.0,1.21,1
937,1001,998.0,1.22,1
938,1010,1011.0,1.23,1
939,1009,1011.0,1.23,1
940,1017,1021.0,1.24,1
941,1023,1023.0,1.25,1
942,1016,1021.0,1.24,1
943,1034,1032.0,1.26,1
944,1021,1021.0,1.25,1
945,1013,1014.0,1.24,1
946,1009,1008.0,1.23,1
947,1017,1010.0,1.24,1
948,1005,1002.0,1.23,1
949,995,995.0,1.21,1
950,993,996.0,1.21,1
951,998,994.0,1.22,1
952,1002,995.0,1.22,1
953,1004,1003.0,1.23,1
954,1015,1017.0,1.24,1
955,1009,1008.0,1.23,1
956,1007,1001.0,1.23,1
957,1003,1003.0,1.22,1
958,991,997.0,1.21,1
959,987,979.0,1.21,1
960,990,990.0,1.21,1
961,987,985.0,1.21,1
962,983,970.0,1.2,1
963,996,994.0,1.22,1
964,996,994.0,1.22,1
965,1007,1006.0,1.23,1
966,999,1003.0,1.22,1
967,997,994.0,1.22,1
968,982,983.0,1.2,1
969,993,989.0,1.21,1
970,1009,1008.0,1.23,1
971,1017,1018.0,1.24,1
972,1022,1020.0,1.25,1
973,1031,1031.0,1.26,1
974,1055,1071.0,1.29,1
975,1101,1099.0,1.34,1
976,1125,1127.0,1.37,1
977,1122,1119.0,1.37,1
978,1117,1124.0,1.36,1
979,1115,1115.0,1.36,1
980,1108,1106.0,1.35,1
981,1092,1090.0,1.33,1
982,1087,1087.0,1.33,1
983,1078,1081.0,1.32,1
984,1072,1072.0,1.31,1
985,1072,1070.0,1.31,1
986,1089,1088.0,1.33,1
987,1088,1089.0,1.33,1
988,1083,1079.0,1.32,1
989,1051,1057.0,1.28,1
990,1063,1067.0,1.3,1
991,1072,1072.0,1.31,1
992,1059,1073.0,1.29,1
993,1071,1071.0,1.31,1
994,1061,1061.0,1.3,1
995,1054,1053.0,1.29,1
996,1029,1022.0,1.26,1
997,1008,1014.0,1.23,1
998,1008,1008.0,1.23,1
999,1006,1005.0,1.23,1
1000,940,938.0,1.15,1
1001,946,945.0,1.16,1
1002,949,943.0,1.16,1
1003,947,940.0,1.16,1
1004,942,943.0,1.15,1
1005,942,943.0,1.15,1
1006,934,947.0,1.14,1
1007,931,927.0,1.14,1
1008,921,922.0,1.12,1
1009,926,911.0,1.13,1
1010,912,914.0,1.11,1
1011,918,928.0,1.12,1
1012,925,925.0,1.13,1
1013,926,926.0,1.13,1
1014,933,940.0,1.14,1
1015,944,933.0,1.15,1
1016,944,943.0,1.15,1
1017,938,937.0,1.15,1
1018,937,935.0,1.14,1
1019,933,933.0,1.14,1
1020,929,927.0,1.13,1
1021,923,917.0,1.13,1
1022,926,926.0,1.13,1
1023,932,932.0,1.14,1
1024,937,933.0,1.14,1
1025,928,930.0,1.13,1
1026,916,922.0,1.12,1
1027,923,925.0,1.13,1
1028,922,915.0,1.13,1
1029,919,917.0,1.12,1
1030,919,921.0,1.12,1
1031,917,919.0,1.12,1
1032,921,919.0,1.12,1
1033,913,915.0,1.11,1
1034,920,922.0,1.12,1
1035,927,930.0,1.13,1
1036,926,921.0,1.13,1
1037,917,925.0,1.12,1
1038,921,923.0,1.12,1
1039,919,925.0,1.12,1
1040,917,917.0,1.12,1
1041,919,924.0,1.12,1
1042,923,925.0,1.13,1
1043,914,926.0,1.12,1
1044,917,916.0,1.12,1
1045,944,946.0,1.15,1
1046,943,944.0,1.15,1
1047,956,957.0,1.17,1
1048,954,956.0,1.16,1
1049,946,949.0,1.16,1
1050,945,944.0,1.15,1
1051,941,935.0,1.15,1
1052,912,912.0,1.11,1
1053,912,912.0,1.11,1
1054,910,911.0,1.11,1
1055,912,912.0,1.11,1
1056,920,921.0,1.12,1
1057,922,919.0,1.13,1
1058,930,925.0,1.14,1
1059,923,922.0,1.13,1
1060,912,911.0,1.11,1
1061,912,913.0,1.11,1
1062,926,933.0,1.13,1
1063,944,946.0,1.15,1
1064,943,944.0,1.15,1
1065,944,941.0,1.15,1
1066,939,939.0,1.15,1
1067,932,937.0,1.14,1
1068,941,940.0,1.15,1
1069,927,921.0,1.13,1
1070,915,914.0,1.12,1
1071,916,915.0,1.12,1
1072,922,920.0,1.13,1
1073,923,924.0,1.13,1
1074,922,924.0,1.13,1
1075,923,917.0,1.13,1
1076,915,916.0,1.12,1
1077,911,912.0,1.11,1
1078,912,912.0,1.11,1
1079,919,912.0,1.12,1
1080,912,911.0,1.11,1
1081,909,910.0,1.11,1
1082,901,903.0,1.1,1
1083,912,909.0,1.11,1
1084,903,905.0,1.1,1
1085,902,901.0,1.1,1
1086,902,899.0,1.1,1
1087,877,881.0,1.07,1
1088,880,878.0,1.07,1
1089,879,880.0,1.07,1
1090,880,880.0,1.07,1
1091,883,880.0,1.08,1
1092,882,881.0,1.08,1
1093,886,883.0,1.08,1
1094,881,883.0,1.08,1
1095,875,877.0,1.07,1
1096,862,863.0,1.05,1
1097,866,867.0,1.06,1
1098,870,860.0,1.06,1
1099,880,877.0,1.07,1
1100,880,880.0,1.07,1
1101,894,896.0,1.09,1
1102,912,914.0,1.11,1
1103,913,913.0,1.11,1
1104,910,912.0,1.11,1
1105,912,915.0,1.11,1
1106,917,925.0,1.12,1
1107,916,918.0,1.12,1
1108,919,913.0,1.12,1
1109,918,923.0,1.12,1
1110,912,919.0,1.11,1
1111,912,909.0,1.11,1
1112,908,910.0,1.11,1
1113,907,906.0,1.11,1
1114,891,897.0,1.09,1
1115,892,893.0,1.09,1
1116,897,887.0,1.1,1
1117,896,897.0,1.09,1
1118,897,899.0,1.1,1
1119,903,905.0,1.1,1
1120,894,896.0,1.09,1
1121,892,891.0,1.09,1
1122,873,872.0,1.07,1
1123,874,874.0,1.07,1
1124,880,880.0,1.07,1
1125,891,880.0,1.09,1
1126,885,890.0,1.08,1
1127,892,889.0,1.09,1
1128,885,887.0,1.08,1
1129,891,890.0,1.09,1
1130,890,886.0,1.09,1
1131,874,878.0,1.07,1
1132,879,877.0,1.07,1
1133,882,880.0,1.08,1
1134,881,880.0,1.08,1
1135,891,895.0,1.09,1
1136,892,883.0,1.09,1
1137,887,884.0,1.08,1
1138,889,886.0,1.09,1
1139,874,874.0,1.07,1
1140,896,898.0,1.09,1
1141,912,915.0,1.11,1
1142,912,912.0,1.11,1
1143,909,909.0,1.11,1
1144,912,912.0,1.11,1
1145,911,912.0,1.11,1
1146,912,912.0,1.11,1
1147,912,912.0,1.11,1
1148,906,905.0,1.11,1
1149,895,896.0,1.09,1
1150,890,907.0,1.09,1
1151,909,902.0,1.11,1
1152,910,912.0,1.11,1
1153,932,937.0,1.14,1
1154,935,941.0,1.14,1
1155,937,944.0,1.14,1
1156,932,942.0,1.14,1
1157,912,916.0,1.11,1
1158,928,925.0,1.13,1
1159,921,919.0,1.12,1
1160,927,911.0,1.13,1
1161,933,935.0,1.14,1
1162,934,935.0,1.14,1
1163,960,938.0,1.17,1
1164,933,931.0,1.14,1
1165,944,927.0,1.15,1
1166,917,914.0,1.12,1
1167,917,912.0,1.12,1
1168,925,925.0,1.13,1
1169,919,917.0,1.12,1
1170,918,925.0,1.12,1
1171,913,917.0,1.11,1
1172,918,929.0,1.12,1
1173,944,944.0,1.15,1
1174,944,942.0,1.15,1
1175,983,993.0,1.2,1
1176,1019,1019.0,1.24,1
1177,1015,1018.0,1.24,1
1178,1014,1029.0,1.24,1
1179,1021,1019.0,1.25,1
1180,1013,1019.0,1.24,1
1181,1014,1023.0,1.24,1
1182,1019,1032.0,1.24,1
1183,997,993.0,1.22,1
1184,1009,1019.0,1.23,1
1185,1013,1012.0,1.24,1
1186,1013,1012.0,1.24,1
1187,1022,1027.0,1.25,1
1188,1030,1032.0,1.26,1
1189,1031,1031.0,1.26,1
1190,1029,1037.0,1.26,1
1191,1023,1020.0,1.25,1
1192,1038,1035.0,1.27,1
1193,1038,1039.0,1.27,1
1194,1055,1056.0,1.29,1
1195,1053,1053.0,1.29,1
1196,1045,1053.0,1.28,1
1197,1041,1045.0,1.27,1
1198,1029,1020.0,1.26,1
1199,1018,1008.0,1.24,1
1200,1010,1011.0,1.23,1
1201,1013,1037.0,1.24,1
1202,1013,1009.0,1.24,1
1203,1019,1012.0,1.24,1
1204,1014,1012.0,1.24,1
1205,1008,1008.0,1.23,1
1206,1008,1001.0,1.23,1
1207,992,989.0,1.21,1
1208,988,987.0,1.21,1
1209,989,986.0,1.21,1
1210,987,987.0,1.21,1
1211,997,1003.0,1.22,1
1212,1020,1023.0,1.25,1
1213,1019,1021.0,1.24,1
1214,1010,1009.0,1.23,1
1215,1040,1039.0,1.27,1
1216,1037,1041.0,1.27,1
1217,1047,1046.0,1.28,1
1218,1047,1047.0,1.28,1
1219,1071,1077.0,1.31,1
1220,1088,1087.0,1.33,1
1221,1085,1089.0,1.32,1
1222,1069,1067.0,1.31,1
1223,1054,1044.0,1.29,1
1224,1058,1061.0,1.29,1
1225,1059,1059.0,1.29,1
1226,1065,1053.0,1.3,1
1227,1060,1059.0,1.29,1
1228,1055,1043.0,1.29,1
1229,1034,1034.0,1.26,1
1230,1033,1034.0,1.26,1
1231,1052,1052.0,1.28,1
1232,1071,1075.0,1.31,1
1233,1071,1065.0,1.31,1
1234,1066,1068.0,1.3,1
1235,1071,1070.0,1.31,1
1236,1065,1067.0,1.3,1
1237,1053,1052.0,1.29,1
1238,1048,1046.0,1.28,1
1239,1040,1050.0,1.27,1
1240,1073,1077.0,1.31,1
1241,1082,1076.0,1.32,1
1242,1083,1083.0,1.32,1
1243,1104,1104.0,1.35,1
1244,1095,1094.0,1.34,1
1245,1089,1091.0,1.33,1
1246,1094,1092.0,1.34,1
1247,1127,1129.0,1.38,1
1248,1142,1139.0,1.39,1
1249,1153,1152.0,1.41,1
1250,1150,1151.0,1.4,1
1251,1140,1137.0,1.39,1
1252,1104,1110.0,1.35,1
1253,1133,1113.0,1.38,1
1254,1116,1119.0,1.36,1
1255,1123,1125.0,1.37,1
1256,1120,1118.0,1.37,1
1257,1114,1114.0,1.36,1
1258,1106,1106.0,1.35,1
1259,1088,1092.0,1.33,1
1260,1085,1087.0,1.32,1
1261,1077,1078.0,1.32,1
1262,1069,1070.0,1.31,1
1263,1065,1070.0,1.3,1
1264,1072,1075.0,1.31,1
1265,1074,1072.0,1.31,1
1266,1081,1082.0,1.32,1
1267,1083,1081.0,1.32,1
1268,1072,1066.0,1.31,1
1269,1072,1076.0,1.31,1
1270,1073,1075.0,1.31,1
1271,1070,1072.0,1.31,1
1272,1088,1086.0,1.33,1
1273,1079,1083.0,1.32,1
1274,1073,1075.0,1.31,1
1275,1067,1062.0,1.3,1
1276,1056,1051.0,1.29,1
1277,1049,1052.0,1.28,1
1278,1045,1043.0,1.28,1
1279,1042,1050.0,1.27,1
1280,1040,1051.0,1.27,1
1281,1049,1051.0,1.28,1
1282,1046,1042.0,1.28,1
1283,1043,1040.0,1.27,1
1284,1046,1045.0,1.28,1
1285,1045,1046.0,1.28,1
1286,1040,1046.0,1.27,1
1287,1044,1041.0,1.27,1
1288,1044,1045.0,1.27,1
1289,1038,1033.0,1.27,1
1290,1013,1015.0,1.24,1
1291,1002,1008.0,1.22,1
1292,1008,1008.0,1.23,1
1293,1003,1001.0,1.22,1
1294,1006,1008.0,1.23,1
1295,1005,1007.0,1.23,1
1296,1002,1008.0,1.22,1
1297,999,1003.0,1.22,1
1298,983,980.0,1.2,1
1299,967,971.0,1.18,1
1300,976,975.0,1.19,1
1301,970,971.0,1.18,1
1302,976,976.0,1.19,1
1303,1008,1000.0,1.23,1
1304,1008,1005.0,1.23,1
1305,1008,1007.0,1.23,1
1306,1005,1004.0,1.23,1
1307,999,995.0,1.22,1
1308,999,993.0,1.22,1
1309,990,989.0,1.21,1
1310,1015,1018.0,1.24,1
1311,1035,1034.0,1.26,1
1312,1020,1029.0,1.25,1
1313,1021,1012.0,1.25,1
1314,996,1003.0,1.22,1
1315,1013,1011.0,1.24,1
1316,1016,1021.0,1.24,1
1317,1016,1019.0,1.24,1
1318,1015,1014.0,1.24,1
1319,1013,1019.0,1.24,1
1320,1015,1017.0,1.24,1
1321,1011,1013.0,1.23,1
1322,1040,1022.0,1.27,1
1323,1029,1034.0,1.26,1
1324,1021,1020.0,1.25,1
1325,1021,1021.0,1.25,1
1326,1014,1012.0,1.24,1
1327,1007,1010.0,1.23,1
1328,1002,1002.0,1.22,1
1329,994,994.0,1.21,1
1330,982,991.0,1.2,1
1331,981,978.0,1.2,1
1332,981,978.0,1.2,1
1333,977,981.0,1.19,1
1334,982,983.0,1.2,1
1335,985,981.0,1.2,1
1336,976,981.0,1.19,1
1337,979,977.0,1.2,1
1338,977,978.0,1.19,1
1339,966,965.0,1.18,1
1340,959,958.0,1.17,1
1341,973,967.0,1.19,1
1342,976,971.0,1.19,1
1343,974,971.0,1.19,1
1344,971,976.0,1.19,1
1345,955,964.0,1.17,1
1346,960,960.0,1.17,1
1347,938,937.0,1.15,1
1348,935,934.0,1.14,1
1349,938,939.0,1.15,1
1350,941,941.0,1.15,1
1351,939,941.0,1.15,1
1352,943,941.0,1.15,1
1353,949,945.0,1.16,1
1354,952,950.0,1.16,1
1355,956,959.0,1.17,1
1356,954,960.0,1.16,1
1357,958,949.0,1.17,1
1358,958,958.0,1.17,1
1359,966,970.0,1.18,1
1360,971,973.0,1.19,1
1361,976,976.0,1.19,1
1362,976,976.0,1.19,1
1363,976,979.0,1.19,1
1364,982,979.0,1.2,1
1365,965,962.0,1.18,1
1366,964,965.0,1.18,1
1367,963,965.0,1.18,1
1368,961,960.0,1.17,1
1369,956,957.0,1.17,1
1370,962,962.0,1.17,1
1371,965,961.0,1.18,1
1372,966,965.0,1.18,1
1373,965,964.0,1.18,1
1374,976,973.0,1.19,1
1375,974,976.0,1.19,1
1376,979,976.0,1.2,1
1377,991,998.0,1.21,1
1378,999,1002.0,1.22,1
1379,1004,998.0,1.23,1
1380,994,994.0,1.21,1
1381,1006,1007.0,1.23,1
1382,996,991.0,1.22,1
1383,976,976.0,1.19,1
1384,971,967.0,1.19,1
1385,964,965.0,1.18,1
1386,961,960.0,1.17,1
1387,960,959.0,1.17,1
1388,966,967.0,1.18,1
1389,983,986.0,1.2,1
1390,982,983.0,1.2,1
1391,993,995.0,1.21,1
1392,995,990.0,1.21,1
1393,987,991.0,1.21,1
1394,993,1002.0,1.21,1
1395,994,992.0,1.21,1
1396,993,992.0,1.21,1
1397,991,992.0,1.21,1
1398,987,987.0,1.21,1
1399,974,969.0,1.19,1
1400,966,971.0,1.18,1
1401,970,969.0,1.18,1
1402,972,976.0,1.19,1
1403,979,978.0,1.2,1
1404,976,979.0,1.19,1
1405,977,979.0,1.19,1
1406,980,976.0,1.2,1
1407,992,993.0,1.21,1
1408,994,994.0,1.21,1
1409,986,988.0,1.2,1
1410,983,991.0,1.2,1
1411,992,976.0,1.21,1
1412,977,975.0,1.19,1
1413,973,973.0,1.19,1
1414,963,963.0,1.18,1
1415,962,956.0,1.17,1
1416,955,960.0,1.17,1
1417,950,948.0,1.16,1
1418,941,939.0,1.15,1
1419,933,931.0,1.14,1
1420,937,934.0,1.14,1
1421,938,944.0,1.15,1
1422,942,939.0,1.15,1
1423,942,941.0,1.15,1
1424,942,944.0,1.15,1
1425,937,935.0,1.14,1
1426,927,925.0,1.13,1
1427,926,927.0,1.13,1
1428,935,938.0,1.14,1
1429,933,927.0,1.14,1
1430,930,929.0,1.14,1
1431,930,929.0,1.14,1
1432,932,931.0,1.14,1
1433,944,943.0,1.15,1
1434,947,944.0,1.16,1
1435,933,938.0,1.14,1
1436,935,937.0,1.14,1
1437,932,939.0,1.14,1
1438,934,935.0,1.14,1
1439,935,934.0,1.14,1
1440,931,937.0,1.14,1
1441,932,929.0,1.14,1
1442,931,928.0,1.14,1
1443,929,930.0,1.13,1
1444,925,923.0,1.13,1
1445,923,921.0,1.13,1
1446,915,919.0,1.12,1
1447,916,913.0,1.12,1
1448,918,917.0,1.12,1
1449,920,922.0,1.12,1
1450,923,928.0,1.13,1
1451,929,931.0,1.13,1
1452,929,929.0,1.13,1
1453,912,913.0,1.11,1
1454,914,915.0,1.12,1
1455,911,908.0,1.11,1
1456,912,912.0,1.11,1
1457,912,912.0,1.11,1
1458,911,912.0,1.11,1
1459,908,909.0,1.11,1
1460,911,909.0,1.11,1
1461,884,884.0,1.08,1
1462,891,882.0,1.09,1
1463,890,893.0,1.09,1
1464,891,887.0,1.09,1
1465,896,896.0,1.09,1
1466,895,895.0,1.09,1
1467,898,900.0,1.1,1
1468,910,910.0,1.11,1
1469,909,903.0,1.11,1
1470,899,899.0,1.1,1
1471,901,907.0,1.1,1
1472,907,903.0,1.11,1
1473,907,899.0,1.11,1
1474,899,899.0,1.1,1
1475,903,903.0,1.1,1
1476,910,911.0,1.11,1
1477,903,903.0,1.1,1
1478,902,902.0,1.1,1
1479,885,882.0,1.08,1
1480,897,891.0,1.1,1
1481,889,892.0,1.09,1
1482,897,896.0,1.1,1
1483,914,917.0,1.12,1
1484,923,919.0,1.13,1
1485,919,912.0,1.12,1
1486,912,913.0,1.11,1
1487,909,912.0,1.11,1
1488,891,895.0,1.09,1
1489,888,886.0,1.08,1
1490,899,895.0,1.1,1
1491,894,895.0,1.09,1
1492,896,891.0,1.09,1
1493,887,890.0,1.08,1
1494,891,895.0,1.09,1
1495,896,896.0,1.09,1
1496,894,896.0,1.09,1
1497,894,893.0,1.09,1
1498,896,898.0,1.09,1
1499,896,896.0,1.09,1
1500,894,890.0,1.09,1
1501,889,889.0,1.09,1
1502,885,891.0,1.08,1
1503,887,884.0,1.08,1
1504,885,886.0,1.08,1
1505,877,877.0,1.07,1
1506,863,859.0,1.05,1
1507,853,853.0,1.04,1
1508,867,871.0,1.06,1
1509,877,874.0,1.07,1
1510,875,876.0,1.07,1
1511,880,874.0,1.07,1
1512,879,880.0,1.07,1
1513,880,870.0,1.07,1
1514,884,880.0,1.08,1
1515,900,895.0,1.1,1
1516,890,895.0,1.09,1
1517,902,903.0,1.1,1
1518,912,912.0,1.11,1
1519,912,914.0,1.11,1
1520,913,916.0,1.11,1
1521,912,912.0,1.11,1
1522,898,916.0,1.1,1
1523,893,890.0,1.09,1
1524,890,895.0,1.09,1
1525,898,894.0,1.1,1
1526,896,900.0,1.09,1
1527,902,907.0,1.1,1
1528,899,901.0,1.1,1
1529,910,910.0,1.11,1
1530,912,912.0,1.11,1
1531,903,902.0,1.1,1
1532,891,891.0,1.09,1
1533,886,890.0,1.08,1
1534,891,896.0,1.09,1
1535,896,897.0,1.09,1
1536,896,902.0,1.09,1
1537,912,914.0,1.11,1
1538,922,913.0,1.13,1
1539,933,930.0,1.14,1
1540,942,939.0,1.15,1
1541,949,947.0,1.16,1
1542,944,945.0,1.15,1
1543,960,960.0,1.17,1
1544,975,974.0,1.19,1
1545,987,985.0,1.21,1
1546,976,976.0,1.19,1
1547,974,976.0,1.19,1
1548,971,969.0,1.19,1
1549,962,966.0,1.17,1
1550,953,950.0,1.16,1
1551,945,955.0,1.15,1
1552,944,948.0,1.15,1
1553,942,946.0,1.15,1
1554,975,973.0,1.19,1
1555,974,967.0,1.19,1
1556,969,974.0,1.18,1
1557,967,966.0,1.18,1
1558,954,950.0,1.16,1
1559,946,944.0,1.16,1
1560,944,944.0,1.15,1
1561,943,944.0,1.15,1
1562,937,941.0,1.14,1
1563,944,936.0,1.15,1
1564,944,944.0,1.15,1
1565,944,941.0,1.15,1
1566,932,937.0,1.14,1
1567,925,927.0,1.13,1
1568,919,925.0,1.12,1
1569,931,929.0,1.14,1
1570,931,938.0,1.14,1
1571,939,938.0,1.15,1
1572,941,939.0,1.15,1
1573,934,934.0,1.14,1
1574,928,935.0,1.13,1
1575,929,930.0,1.13,1
1576,922,923.0,1.13,1
1577,925,928.0,1.13,1
1578,934,930.0,1.14,1
1579,932,929.0,1.14,1
1580,928,931.0,1.13,1
1581,926,923.0,1.13,1
1582,925,923.0,1.13,1
1583,923,926.0,1.13,1
1584,927,927.0,1.13,1
1585,911,912.0,1.11,1
1586,928,928.0,1.13,1
1587,930,929.0,1.14,1
1588,933,933.0,1.14,1
1589,961,961.0,1.17,1
1590,960,959.0,1.17,1
1591,963,960.0,1.18,1
1592,961,962.0,1.17,1
1593,935,937.0,1.14,1
1594,929,929.0,1.13,1
1595,930,931.0,1.14,1
1596,928,934.0,1.13,1
1597,925,929.0,1.13,1
1598,939,941.0,1.15,1
1599,942,943.0,1.15,1
1600,944,942.0,1.15,1
1601,951,950.0,1.16,1
1602,938,934.0,1.15,1
1603,944,934.0,1.15,1
1604,933,935.0,1.14,1
1605,928,929.0,1.13,1
1606,922,927.0,1.13,1
1607,922,922.0,1.13,1
1608,922,923.0,1.13,1
1609,964,963.0,1.18,1
1610,946,947.0,1.16,1
1611,944,945.0,1.15,1
1612,960,957.0,1.17,1
1613,970,975.0,1.18,1
1614,977,976.0,1.19,1
1615,981,977.0,1.2,1
1616,983,980.0,1.2,1
1617,976,979.0,1.19,1
1618,976,979.0,1.19,1
1619,976,976.0,1.19,1
1620,960,957.0,1.17,1
1621,957,955.0,1.17,1
1622,960,963.0,1.17,1
1623,990,986.0,1.21,1
1624,986,979.0,1.2,1
1625,976,979.0,1.19,1
1626,975,976.0,1.19,1
1627,979,977.0,1.2,1
1628,971,976.0,1.19,1
1629,975,971.0,1.19,1
1630,974,966.0,1.19,1
1631,976,971.0,1.19,1
1632,970,970.0,1.18,1
1633,960,965.0,1.17,1
1634,970,974.0,1.18,1
1635,974,970.0,1.19,1
1636,962,965.0,1.17,1
1637,961,960.0,1.17,1
1638,941,943.0,1.15,1
1639,939,938.0,1.15,1
1640,932,929.0,1.14,1
1641,935,931.0,1.14,1
1642,932,939.0,1.14,1
1643,938,935.0,1.15,1
1644,933,939.0,1.14,1
1645,933,931.0,1.14,1
1646,923,926.0,1.13,1
1647,937,934.0,1.14,1
1648,941,944.0,1.15,1
1649,944,938.0,1.15,1
1650,944,945.0,1.15,1
1651,944,944.0,1.15,1
1652,944,944.0,1.15,1
1653,935,943.0,1.14,1
1654,944,941.0,1.15,1
1655,935,926.0,1.14,1
1656,928,929.0,1.13,1
1657,929,930.0,1.13,1
1658,944,941.0,1.15,1
1659,944,944.0,1.15,1
1660,944,944.0,1.15,1
1661,939,942.0,1.15,1
1662,935,934.0,1.14,1
1663,913,913.0,1.11,1
1664,901,903.0,1.1,1
1665,903,906.0,1.1,1
1666,919,926.0,1.12,1
1667,927,926.0,1.13,1
1668,923,922.0,1.13,1
1669,921,923.0,1.12,1
1670,927,922.0,1.13,1
1671,925,927.0,1.13,1
1672,915,912.0,1.12,1
1673,923,925.0,1.13,1
1674,935,932.0,1.14,1
1675,938,935.0,1.15,1
1676,943,941.0,1.15,1
1677,939,939.0,1.15,1
1678,940,935.0,1.15,1
1679,957,956.0,1.17,1
1680,947,944.0,1.16,1
1681,944,944.0,1.15,1
1682,937,934.0,1.14,1
1683,951,947.0,1.16,1
1684,957,958.0,1.17,1
1685,950,951.0,1.16,1
1686,945,946.0,1.15,1
1687,953,950.0,1.16,1
1688,950,951.0,1.16,1
1689,950,951.0,1.16,1
1690,944,944.0,1.15,1
1691,942,939.0,1.15,1
1692,935,938.0,1.14,1
1693,926,932.0,1.13,1
1694,929,927.0,1.13,1
1695,928,931.0,1.13,1
1696,927,924.0,1.13,1
1697,914,921.0,1.12,1
1698,914,912.0,1.12,1
1699,901,907.0,1.1,1
1700,913,912.0,1.11,1
1701,913,912.0,1.11,1
1702,931,934.0,1.14,1
1703,938,939.0,1.15,1
1704,940,942.0,1.15,1
1705,942,944.0,1.15,1
1706,955,959.0,1.17,1
1707,953,958.0,1.16,1
1708,959,959.0,1.17,1
1709,958,951.0,1.17,1
1710,960,953.0,1.17,1
1711,956,954.0,1.17,1
1712,962,963.0,1.17,1
1713,960,962.0,1.17,1
1714,951,957.0,1.16,1
1715,963,960.0,1.18,1
1716,949,956.0,1.16,1
1717,940,935.0,1.15,1
1718,944,944.0,1.15,1
1719,946,951.0,1.16,1
1720,944,943.0,1.15,1
1721,944,945.0,1.15,1
1722,944,945.0,1.15,1
1723,941,938.0,1.15,1
1724,941,933.0,1.15,1
1725,921,917.0,1.12,1
1726,919,913.0,1.12,1
1727,919,915.0,1.12,1
1728,916,913.0,1.12,1
1729,912,913.0,1.11,1
1730,920,921.0,1.12,1
1731,921,923.0,1.12,1
1732,940,944.0,1.15,1
1733,944,948.0,1.15,1
1734,944,944.0,1.15,1
1735,970,969.0,1.18,1
1736,997,991.0,1.22,1
1737,992,989.0,1.21,1
1738,989,987.0,1.21,1
1739,986,998.0,1.2,1
1740,989,989.0,1.21,1
1741,981,982.0,1.2,1
1742,993,991.0,1.21,1
1743,976,978.0,1.19,1
1744,978,976.0,1.19,1
1745,985,991.0,1.2,1
1746,998,996.0,1.22,1
1747,1005,999.0,1.23,1
1748,999,998.0,1.22,1
1749,1008,1003.0,1.23,1
1750,1006,997.0,1.23,1
1751,995,991.0,1.21,1
1752,976,977.0,1.19,1
1753,976,976.0,1.19,1
1754,989,972.0,1.21,1
1755,974,973.0,1.19,1
1756,973,973.0,1.19,1
1757,973,972.0,1.19,1
1758,962,965.0,1.17,1
1759,961,962.0,1.17,1
1760,959,970.0,1.17,1
1761,967,967.0,1.18,1
1762,974,974.0,1.19,1
1763,976,974.0,1.19,1
1764,976,979.0,1.19,1
1765,986,987.0,1.2,1
1766,984,983.0,1.2,1
1767,979,989.0,1.2,1
1768,991,993.0,1.21,1
1769,995,997.0,1.21,1
1770,996,993.0,1.22,1
1771,1013,1015.0,1.24,1
1772,1047,1045.0,1.28,1
1773,1043,1040.0,1.27,1
1774,1043,1040.0,1.27,1
1775,1043,1045.0,1.27,1
1776,1042,1043.0,1.27,1
1777,1021,1020.0,1.25,1
1778,1021,1013.0,1.25,1
1779,1017,1017.0,1.24,1
1780,1015,1008.0,1.24,1
1781,1047,1043.0,1.28,1
1782,1040,1038.0,1.27,1
1783,1039,1039.0,1.27,1
1784,1035,1036.0,1.26,1
1785,1019,1022.0,1.24,1
1786,1010,1013.0,1.23,1
1787,1008,1008.0,1.23,1
1788,1008,1010.0,1.23,1
1789,1012,1009.0,1.24,1
1790,1013,1014.0,1.24,1
1791,1011,1013.0,1.23,1
1792,1008,1007.0,1.23,1
1793,998,999.0,1.22,1
1794,1005,1003.0,1.23,1
1795,1001,1003.0,1.22,1
1796,1003,1001.0,1.22,1
1797,1004,999.0,1.23,1
1798,992,993.0,1.21,1
1799,1002,1003.0,1.22,1
1800,992,987.0,1.21,1
1801,976,981.0,1.19,1
1802,980,980.0,1.2,1
1803,981,981.0,1.2,1
1804,982,983.0,1.2,1
1805,991,993.0,1.21,1
1806,1017,1015.0,1.24,1
1807,1011,1012.0,1.23,1
1808,1011,1011.0,1.23,1
1809,1042,1038.0,1.27,1
1810,1035,1040.0,1.26,1
1811,1033,1029.0,1.26,1
1812,1040,1039.0,1.27,1
1813,1038,1037.0,1.27,1
1814,1037,1037.0,1.27,1
1815,1029,1030.0,1.26,1
1816,1010,1008.0,1.23,1
1817,1018,1029.0,1.24,1
1818,1035,1035.0,1.26,1
1819,1033,1023.0,1.26,1
1820,1023,1031.0,1.25,1
1821,1029,1020.0,1.26,1
1822,1021,1033.0,1.25,1
1823,1029,1031.0,1.26,1
1824,1013,1016.0,1.24,1
1825,1005,1003.0,1.23,1
1826,999,998.0,1.22,1
1827,995,995.0,1.21,1
1828,1001,999.0,1.22,1
1829,1002,1002.0,1.22,1
1830,993,993.0,1.21,1
1831,997,1008.0,1.22,1
1832,991,994.0,1.21,1
1833,979,987.0,1.2,1
1834,976,978.0,1.19,1
1835,975,980.0,1.19,1
1836,980,975.0,1.2,1
1837,982,981.0,1.2,1
1838,988,986.0,1.21,1
1839,980,982.0,1.2,1
1840,976,979.0,1.19,1
1841,982,983.0,1.2,1
1842,983,987.0,1.2,1
1843,989,989.0,1.21,1
1844,991,997.0,1.21,1
1845,993,997.0,1.21,1
1846,990,992.0,1.21,1
1847,989,986.0,1.21,1
1848,985,983.0,1.2,1
1849,976,975.0,1.19,1
1850,956,960.0,1.17,1
1851,955,951.0,1.17,1
1852,958,965.0,1.17,1
1853,963,960.0,1.18,1
1854,959,965.0,1.17,1
1855,953,967.0,1.16,1
1856,957,958.0,1.17,1
1857,961,958.0,1.17,1
1858,959,960.0,1.17,1
1859,949,941.0,1.16,1
1860,990,977.0,1.21,1
1861,974,974.0,1.19,1
1862,976,974.0,1.19,1
1863,974,973.0,1.19,1
1864,967,967.0,1.18,1
1865,966,965.0,1.18,1
1866,963,960.0,1.18,1
1867,949,948.0,1.16,1
1868,958,951.0,1.17,1
1869,955,952.0,1.17,1
1870,955,959.0,1.17,1
1871,947,954.0,1.16,1
1872,956,960.0,1.17,1
1873,958,961.0,1.17,1
1874,954,960.0,1.16,1
1875,957,958.0,1.17,1
1876,944,944.0,1.15,1
1877,941,939.0,1.15,1
1878,937,933.0,1.14,1
1879,938,938.0,1.15,1
1880,940,941.0,1.15,1
1881,930,935.0,1.14,1
1882,938,931.0,1.15,1
1883,925,929.0,1.13,1
1884,925,923.0,1.13,1
1885,914,927.0,1.12,1
1886,912,914.0,1.11,1
1887,917,915.0,1.12,1
1888,923,924.0,1.13,1
1889,953,931.0,1.16,1
1890,928,934.0,1.13,1
1891,925,928.0,1.13,1
1892,922,927.0,1.13,1
1893,935,931.0,1.14,1
1894,919,925.0,1.12,1
1895,921,922.0,1.12,1
1896,918,919.0,1.12,1
1897,922,922.0,1.13,1
1898,919,916.0,1.12,1
1899,912,915.0,1.11,1
1900,912,912.0,1.11,1
1901,921,918.0,1.12,1
1902,912,914.0,1.11,1
1903,931,931.0,1.14,1
1904,944,944.0,1.15,1
1905,939,939.0,1.15,1
1906,941,943.0,1.15,1
1907,942,941.0,1.15,1
1908,942,942.0,1.15,1
1909,937,934.0,1.14,1
1910,935,933.0,1.14,1
1911,929,925.0,1.13,1
1912,922,915.0,1.13,1
1913,923,918.0,1.13,1
1914,915,920.0,1.12,1
1915,946,949.0,1.16,1
1916,970,967.0,1.18,1
1917,965,969.0,1.18,1
1918,966,967.0,1.18,1
1919,961,960.0,1.17,1
1920,955,957.0,1.17,1
1921,955,954.0,1.17,1
1922,958,962.0,1.17,1
1923,957,952.0,1.17,1
1924,950,948.0,1.16,1
1925,949,951.0,1.16,1
1926,951,948.0,1.16,1
1927,944,945.0,1.15,1
1928,942,942.0,1.15,1
1929,928,929.0,1.13,1
1930,923,925.0,1.13,1
1931,925,926.0,1.13,1
1932,903,925.0,1.1,1
1933,939,928.0,1.15,1
1934,930,935.0,1.14,1
1935,931,929.0,1.14,1
1936,946,947.0,1.16,1
1937,950,943.0,1.16,1
1938,943,938.0,1.15,1
1939,945,941.0,1.15,1
1940,959,964.0,1.17,1
1941,975,973.0,1.19,1
1942,965,957.0,1.18,1
1943,960,970.0,1.17,1
1944,963,957.0,1.18,1
1945,971,962.0,1.19,1
1946,971,971.0,1.19,1
1947,979,966.0,1.2,1
1948,986,973.0,1.2,1
1949,974,975.0,1.19,1
1950,975,975.0,1.19,1
1951,978,979.0,1.19,1
1952,982,983.0,1.2,1
1953,1013,1011.0,1.24,1
1954,1019,1019.0,1.24,1
1955,999,1001.0,1.22,1
1956,985,994.0,1.2,1
1957,992,989.0,1.21,1
1958,985,990.0,1.2,1
1959,987,987.0,1.21,1
1960,991,992.0,1.21,1
1961,994,994.0,1.21,1
1962,994,993.0,1.21,1
1963,983,994.0,1.2,1
1964,979,982.0,1.2,1
1965,973,971.0,1.19,1
1966,972,969.0,1.19,1
1967,963,967.0,1.18,1
1968,945,962.0,1.15,1
1969,960,960.0,1.17,1
1970,950,954.0,1.16,1
1971,977,971.0,1.19,1
1972,998,1008.0,1.22,1
1973,1013,1012.0,1.24,1
1974,1056,1057.0,1.29,1
1975,1089,1089.0,1.33,1
1976,1089,1092.0,1.33,1
1977,1090,1088.0,1.33,1
1978,1082,1081.0,1.32,1
1979,1083,1082.0,1.32,1
1980,1069,1070.0,1.31,1
1981,1059,1061.0,1.29,1
1982,1060,1053.0,1.29,1
1983,1043,1045.0,1.27,1
1984,1038,1040.0,1.27,1
1985,1040,1040.0,1.27,1
1986,1017,1027.0,1.24,1
1987,1021,1047.0,1.25,1
1988,1003,988.0,1.22,1
1989,1003,998.0,1.22,1
1990,1002,1002.0,1.22,1
1991,1003,1003.0,1.22,1
1992,1008,1006.0,1.23,1
1993,996,999.0,1.22,1
1994,992,990.0,1.21,1
1995,990,987.0,1.21,1
1996,970,975.0,1.18,1
1997,966,965.0,1.18,1
1998,961,964.0,1.17,1
1999,976,981.0,1.19,1
